TimeStamp,Roll1,Pitch1,Yaw1,Roll2,Pitch2,Yaw2,FRS,EMG1
3072,-0.05,0.2,-0.01,0,0,0,2.717,43
3087,-0.07,0.42,-0.01,-0.03,0.22,-0.01,2.722,44
3102,-0.09,0.65,0,-0.06,0.44,-0.01,2.717,42
3118,-0.1,0.87,0.01,-0.1,0.66,-0.02,2.722,40
3134,-0.11,1.1,0.03,-0.14,0.88,-0.03,2.722,42
3149,-0.11,1.31,0.04,-0.18,1.1,-0.04,2.722,41
3165,-0.13,1.53,0.05,-0.22,1.31,-0.05,2.722,39
3180,-0.16,1.76,0.06,-0.22,1.31,-0.05,2.722,43
3195,-0.19,1.98,0.06,-0.26,1.52,-0.06,2.722,41
3211,-0.23,2.19,0.06,-0.3,1.73,-0.07,2.722,39
3227,-0.28,2.38,0.07,-0.33,1.94,-0.07,2.722,40
3241,-0.33,2.58,0.09,-0.37,2.15,-0.08,2.722,39
3256,-0.38,2.79,0.1,-0.4,2.35,-0.09,2.722,38
3270,-0.41,3.01,0.1,-0.44,2.56,-0.1,2.722,38
3285,-0.42,3.25,0.11,-0.44,2.56,-0.1,2.722,37
3298,-0.43,3.47,0.12,-0.48,2.77,-0.11,2.722,37
3313,-0.44,3.68,0.13,-0.52,2.97,-0.13,2.722,37
3327,-0.45,3.89,0.14,-0.55,3.19,-0.15,2.722,37
3342,-0.46,4.09,0.15,-0.59,3.4,-0.16,2.722,40
3356,-0.46,4.3,0.17,-0.59,3.4,-0.16,2.722,40
3370,-0.47,4.52,0.18,-0.64,3.61,-0.18,2.722,38
3384,-0.48,4.75,0.19,-0.67,3.82,-0.19,2.722,37
3399,-0.52,4.96,0.21,-0.72,4.04,-0.2,2.722,38
3413,-0.55,5.17,0.22,-0.75,4.25,-0.21,2.722,39
3427,-0.58,5.38,0.23,-0.75,4.25,-0.21,2.722,38
3441,-0.6,5.59,0.24,-0.78,4.46,-0.22,2.722,37
3456,-0.61,5.81,0.24,-0.81,4.67,-0.24,2.722,37
3470,-0.61,6.03,0.26,-0.82,4.89,-0.25,2.722,38
3485,-0.63,6.25,0.27,-0.84,5.1,-0.26,2.722,38
3499,-0.65,6.46,0.27,-0.84,5.1,-0.26,2.727,37
3513,-0.68,6.68,0.27,-0.86,5.31,-0.27,2.722,37
3528,-0.69,6.9,0.27,-0.89,5.53,-0.28,2.722,36
3543,-0.7,7.11,0.26,-0.92,5.74,-0.3,2.722,36
3557,-0.73,7.32,0.27,-0.95,5.95,-0.31,2.722,36
3572,-0.76,7.53,0.27,-0.95,5.95,-0.31,2.722,38
3586,-0.79,7.75,0.28,-0.98,6.16,-0.33,2.722,37
3600,-0.81,7.96,0.28,-1.01,6.37,-0.34,2.722,38
3615,-0.82,8.19,0.28,-1.04,6.59,-0.35,2.722,38
3629,-0.82,8.4,0.29,-1.07,6.79,-0.36,2.722,38
3644,-0.82,8.62,0.3,-1.11,7.01,-0.37,2.722,40
3658,-0.83,8.84,0.31,-1.11,7.01,-0.37,2.722,40
3672,-0.84,9.06,0.32,-1.14,7.22,-0.37,2.722,39
3687,-0.85,9.28,0.33,-1.17,7.43,-0.39,2.722,40
3701,-0.86,9.5,0.33,-1.19,7.63,-0.4,2.722,40
3716,-0.87,9.72,0.32,-1.22,7.84,-0.41,2.722,40
3730,-0.91,9.92,0.33,-1.22,7.84,-0.41,2.722,39
3744,-0.96,10.13,0.33,-1.25,8.05,-0.41,2.722,38
3759,-1.02,10.33,0.32,-1.29,8.26,-0.42,2.722,38
3773,-1.07,10.54,0.31,-1.33,8.46,-0.44,2.722,38
3788,-1.12,10.75,0.3,-1.36,8.66,-0.45,2.722,39
3803,-1.15,10.97,0.28,-1.36,8.66,-0.45,2.722,38
3816,-1.18,11.19,0.26,-1.38,8.87,-0.46,2.722,39
3831,-1.21,11.41,0.26,-1.41,9.07,-0.47,2.717,38
3846,-1.25,11.63,0.25,-1.44,9.27,-0.49,2.717,37
3860,-1.28,11.85,0.24,-1.48,9.46,-0.5,2.722,38
3875,-1.31,12.06,0.22,-1.52,9.66,-0.51,2.722,37
3889,-1.33,12.28,0.21,-1.52,9.66,-0.51,2.722,39
3903,-1.35,12.5,0.19,-1.55,9.86,-0.53,2.717,39
3918,-1.39,12.72,0.16,-1.58,10.07,-0.55,2.717,38
3932,-1.41,12.93,0.15,-1.61,10.27,-0.57,2.722,37
3947,-1.45,13.15,0.12,-1.65,10.47,-0.59,2.722,38
3961,-1.5,13.37,0.1,-1.65,10.47,-0.59,2.722,38
3975,-1.56,13.57,0.08,-1.69,10.68,-0.61,2.722,37
3990,-1.61,13.78,0.06,-1.74,10.89,-0.63,2.722,38
4004,-1.64,14,0.03,-1.78,11.1,-0.65,2.722,38
4019,-1.68,14.21,0,-1.81,11.31,-0.67,2.722,37
4033,-1.74,14.43,-0.04,-1.81,11.31,-0.67,2.722,37
4047,-1.78,14.64,-0.07,-1.85,11.51,-0.69,2.722,37
4062,-1.83,14.86,-0.1,-1.9,11.71,-0.7,2.722,36
4077,-1.87,15.06,-0.13,-1.94,11.92,-0.71,2.722,38
4091,-1.92,15.27,-0.16,-1.98,12.12,-0.73,2.717,38
4106,-1.96,15.48,-0.19,-2.02,12.32,-0.76,2.722,39
4120,-2,15.69,-0.21,-2.02,12.32,-0.76,2.722,38
4134,-2.04,15.9,-0.24,-2.05,12.52,-0.77,2.722,38
4149,-2.08,16.11,-0.26,-2.08,12.72,-0.78,2.722,38
4163,-2.11,16.32,-0.28,-2.11,12.92,-0.79,2.722,37
4178,-2.13,16.54,-0.31,-2.15,13.12,-0.81,2.722,37
4192,-2.14,16.76,-0.33,-2.15,13.12,-0.81,2.722,37
4206,-2.15,16.99,-0.34,-2.18,13.32,-0.82,2.722,38
4221,-2.16,17.2,-0.36,-2.21,13.52,-0.83,2.722,38
4235,-2.17,17.41,-0.37,-2.26,13.71,-0.84,2.727,40
4250,-2.19,17.63,-0.4,-2.3,13.91,-0.86,2.727,39
4265,-2.23,17.85,-0.42,-2.3,13.91,-0.86,2.722,42
4278,-2.27,18.07,-0.44,-2.34,14.1,-0.87,2.722,39
4293,-2.31,18.29,-0.46,-2.39,14.3,-0.88,2.722,40
4308,-2.34,18.5,-0.48,-2.43,14.49,-0.9,2.727,39
4322,-2.38,18.71,-0.5,-2.47,14.69,-0.92,2.722,38
4337,-2.41,18.92,-0.52,-2.51,14.88,-0.95,2.722,40
4351,-2.45,19.14,-0.54,-2.51,14.88,-0.95,2.722,38
4365,-2.47,19.37,-0.57,-2.54,15.06,-0.96,2.722,40
4380,-2.49,19.59,-0.6,-2.58,15.25,-0.99,2.722,39
4394,-2.52,19.8,-0.62,-2.63,15.44,-1.01,2.722,41
4409,-2.56,20.01,-0.64,-2.68,15.64,-1.02,2.722,43
4453,-2.59,20.21,-0.66,-2.72,15.83,-1.04,2.722,39
4467,-2.64,20.43,-0.69,-2.76,16.02,-1.05,2.717,40
4482,-2.68,20.65,-0.73,-2.8,16.21,-1.07,2.722,39
4496,-2.71,20.87,-0.76,-2.83,16.4,-1.09,2.722,38
4511,-2.75,21.1,-0.79,-2.87,16.6,-1.11,2.722,37
4525,-2.79,21.31,-0.82,-2.91,16.8,-1.13,2.722,37
4539,-2.83,21.53,-0.85,-2.94,17,-1.15,2.722,37
4554,-2.87,21.74,-0.88,-2.97,17.2,-1.17,2.722,37
4568,-2.92,21.95,-0.91,-3,17.39,-1.18,2.722,38
4583,-2.95,22.15,-0.93,-3,17.39,-1.18,2.722,37
4596,-2.98,22.36,-0.95,-3.03,17.58,-1.2,2.717,38
4611,-3,22.57,-0.97,-3.07,17.77,-1.22,2.722,38
4625,-3.04,22.78,-1,-3.12,17.97,-1.24,2.722,37
4640,-3.07,22.99,-1.02,-3.16,18.16,-1.26,2.722,37
4654,-3.11,23.2,-1.05,-3.16,18.16,-1.26,2.722,37
4668,-3.14,23.41,-1.07,-3.19,18.35,-1.28,2.727,38
4682,-3.18,23.62,-1.11,-3.21,18.54,-1.3,2.722,37
4697,-3.22,23.81,-1.13,-3.24,18.73,-1.32,2.717,38
4711,-3.27,24.01,-1.15,-3.27,18.91,-1.34,2.717,38
4726,-3.32,24.21,-1.19,-3.27,18.91,-1.34,2.722,40
4740,-3.36,24.42,-1.22,-3.31,19.11,-1.36,2.727,38
4754,-3.4,24.64,-1.25,-3.33,19.3,-1.38,2.722,41
4768,-3.42,24.85,-1.28,-3.36,19.48,-1.4,2.722,40
4783,-3.48,25.05,-1.31,-3.39,19.67,-1.41,2.722,40
4797,-3.56,25.28,-1.33,-3.39,19.67,-1.41,2.722,38
4811,-3.64,25.52,-1.36,-3.43,19.86,-1.43,2.722,38
4825,-3.69,25.76,-1.4,-3.47,20.05,-1.45,2.722,38
4840,-3.75,25.99,-1.44,-3.5,20.23,-1.47,2.722,37
4854,-3.81,26.2,-1.47,-3.54,20.42,-1.49,2.717,38
4869,-3.86,26.41,-1.5,-3.54,20.42,-1.49,2.722,38
4883,-3.91,26.6,-1.53,-3.57,20.59,-1.51,2.722,37
4897,-3.94,26.8,-1.57,-3.6,20.78,-1.53,2.717,38
4911,-3.97,26.99,-1.61,-3.63,20.96,-1.55,2.722,39
4926,-4,27.19,-1.65,-3.67,21.14,-1.57,2.722,38
4940,-4.03,27.38,-1.69,-3.67,21.14,-1.57,2.722,38
4954,-4.07,27.57,-1.73,-3.7,21.33,-1.59,2.722,40
4969,-4.11,27.77,-1.76,-3.73,21.51,-1.61,2.717,41
4983,-4.16,27.95,-1.79,-3.77,21.69,-1.63,2.722,40
4997,-4.21,28.13,-1.82,-3.8,21.88,-1.65,2.722,39
5012,-4.26,28.32,-1.86,-3.8,21.88,-1.65,2.727,39
5026,-4.31,28.52,-1.89,-3.84,22.06,-1.68,2.722,38
5040,-4.36,28.71,-1.93,-3.87,22.25,-1.69,2.722,37
5055,-4.4,28.91,-1.96,-3.9,22.43,-1.72,2.722,40
5069,-4.44,29.11,-1.99,-3.94,22.61,-1.74,2.722,39
5083,-4.48,29.31,-2.02,-3.94,22.61,-1.74,2.722,39
5097,-4.52,29.52,-2.05,-3.98,22.79,-1.76,2.722,40
5112,-4.56,29.72,-2.09,-4.02,22.98,-1.79,2.722,39
5126,-4.61,29.92,-2.12,-4.05,23.16,-1.8,2.722,39
5141,-4.66,30.11,-2.16,-4.08,23.34,-1.83,2.722,39
5155,-4.74,30.3,-2.2,-4.12,23.53,-1.84,2.722,39
5169,-4.81,30.5,-2.25,-4.12,23.53,-1.84,2.722,42
5183,-4.87,30.7,-2.29,-4.16,23.7,-1.86,2.722,40
5198,-4.92,30.89,-2.32,-4.2,23.88,-1.88,2.722,74
5212,-4.97,31.09,-2.35,-4.23,24.06,-1.9,2.727,74
5226,-5.01,31.29,-2.39,-4.26,24.23,-1.92,2.722,66
5241,-5.06,31.49,-2.43,-4.26,24.23,-1.92,2.722,58
5255,-5.1,31.69,-2.46,-4.3,24.41,-1.94,2.722,54
5269,-5.14,31.89,-2.5,-4.34,24.59,-1.96,2.722,49
5283,-5.18,32.09,-2.53,-4.39,24.76,-1.98,2.722,45
5298,-5.24,32.29,-2.58,-4.43,24.94,-2,2.722,46
5312,-5.28,32.48,-2.61,-4.43,24.94,-2,2.722,44
5326,-5.33,32.67,-2.65,-4.48,25.12,-2.02,2.722,41
5341,-5.37,32.87,-2.68,-4.51,25.3,-2.05,2.722,40
5355,-5.41,33.06,-2.72,-4.54,25.48,-2.07,2.727,45
5370,-5.44,33.26,-2.74,-4.58,25.66,-2.1,2.722,54
5385,-5.47,33.46,-2.77,-4.58,25.66,-2.1,2.727,51
5399,-5.51,33.65,-2.8,-4.61,25.84,-2.12,2.722,52
5413,-5.55,33.85,-2.84,-4.65,26.02,-2.15,2.727,49
5428,-5.59,34.04,-2.87,-4.67,26.19,-2.17,2.727,57
5442,-5.63,34.23,-2.9,-4.69,26.37,-2.2,2.727,52
5457,-5.67,34.43,-2.93,-4.69,26.37,-2.2,2.722,48
5471,-5.71,34.62,-2.96,-4.71,26.54,-2.22,2.727,48
5485,-5.74,34.81,-2.99,-4.74,26.71,-2.25,2.727,48
5500,-5.78,35.01,-3.03,-4.76,26.88,-2.28,2.727,45
5514,-5.8,35.21,-3.05,-4.79,27.05,-2.31,2.727,44
5529,-5.84,35.4,-3.09,-4.82,27.23,-2.34,2.727,45
5543,-5.88,35.6,-3.12,-4.82,27.23,-2.34,2.727,43
5557,-5.93,35.8,-3.16,-4.85,27.4,-2.38,2.727,41
5572,-5.98,35.99,-3.2,-4.87,27.57,-2.41,2.727,46
5586,-6.04,36.19,-3.24,-4.91,27.74,-2.43,2.727,59
5601,-6.09,36.38,-3.28,-4.95,27.91,-2.45,2.727,55
5615,-6.15,36.57,-3.32,-4.95,27.91,-2.45,2.727,51
5629,-6.2,36.75,-3.36,-4.98,28.07,-2.47,2.727,46
5644,-6.25,36.94,-3.39,-5.02,28.24,-2.49,2.722,49
5658,-6.31,37.13,-3.43,-5.05,28.39,-2.51,2.727,51
5673,-6.35,37.32,-3.47,-5.08,28.56,-2.54,2.722,49
5688,-6.4,37.51,-3.5,-5.08,28.56,-2.54,2.727,48
5701,-6.46,37.7,-3.53,-5.11,28.72,-2.56,2.727,45
5716,-6.51,37.88,-3.57,-5.15,28.87,-2.59,2.722,46
5731,-6.57,38.06,-3.61,-5.19,29.03,-2.61,2.722,43
5745,-6.61,38.25,-3.66,-5.24,29.19,-2.63,2.722,42
5760,-6.65,38.45,-3.69,-5.28,29.35,-2.65,2.722,41
5774,-6.69,38.63,-3.71,-5.28,29.35,-2.65,2.722,39
5788,-6.73,38.8,-3.74,-5.34,29.51,-2.68,2.722,38
5803,-6.76,38.98,-3.77,-5.38,29.67,-2.71,2.722,42
5817,-6.79,39.16,-3.8,-5.42,29.83,-2.74,2.722,41
5832,-6.82,39.35,-3.85,-5.45,30,-2.78,2.722,42
5846,-6.85,39.54,-3.88,-5.45,30,-2.78,2.722,40
5860,-6.88,39.73,-3.93,-5.49,30.17,-2.82,2.722,40
5875,-6.9,39.91,-3.96,-5.52,30.34,-2.85,2.722,42
5889,-6.93,40.09,-4,-5.56,30.5,-2.88,2.722,41
5904,-6.95,40.27,-4.03,-5.61,30.67,-2.92,2.722,40
5919,-6.98,40.45,-4.07,-5.61,30.67,-2.92,2.727,40
5932,-7.02,40.63,-4.12,-5.65,30.84,-2.95,2.722,49
5947,-7.07,40.82,-4.17,-5.69,31,-2.99,2.722,48
5962,-7.14,41,-4.21,-5.75,31.16,-3.03,2.722,45
5976,-7.19,41.18,-4.26,-5.8,31.32,-3.07,2.722,44
5991,-7.23,41.35,-4.3,-5.85,31.48,-3.1,2.722,43
6005,-7.28,41.53,-4.34,-5.85,31.48,-3.1,2.727,41
6019,-7.33,41.71,-4.39,-5.9,31.63,-3.13,2.722,52
6034,-7.4,41.89,-4.46,-5.95,31.79,-3.15,2.722,55
6048,-7.47,42.08,-4.53,-5.98,31.94,-3.19,2.727,49
6063,-7.55,42.25,-4.59,-6.02,32.1,-3.22,2.722,54
6077,-7.64,42.42,-4.66,-6.02,32.1,-3.22,2.727,50
6091,-7.72,42.58,-4.71,-6.05,32.26,-3.26,2.727,47
6106,-7.81,42.74,-4.77,-6.08,32.42,-3.3,2.722,44
6120,-7.87,42.91,-4.82,-6.12,32.57,-3.34,2.722,43
6135,-7.92,43.08,-4.86,-6.16,32.73,-3.37,2.722,44
6149,-7.96,43.26,-4.9,-6.16,32.73,-3.37,2.722,49
6163,-7.99,43.43,-4.95,-6.2,32.89,-3.4,2.727,46
6178,-8.02,43.61,-4.99,-6.24,33.05,-3.43,2.727,53
6192,-8.05,43.79,-5.03,-6.27,33.2,-3.46,2.727,49
6207,-8.1,43.96,-5.08,-6.3,33.36,-3.48,2.722,54
6221,-8.14,44.14,-5.13,-6.3,33.36,-3.48,2.727,50
6235,-8.21,44.32,-5.18,-6.33,33.51,-3.51,2.722,55
6250,-8.27,44.5,-5.24,-6.37,33.66,-3.53,2.727,52
6265,-8.34,44.68,-5.31,-6.4,33.81,-3.56,2.727,48
6279,-8.43,44.84,-5.36,-6.43,33.96,-3.58,2.722,50
6294,-8.51,45.01,-5.42,-6.46,34.11,-3.61,2.722,54
6308,-8.59,45.18,-5.48,-6.46,34.11,-3.61,2.727,60
6322,-8.67,45.34,-5.55,-6.5,34.26,-3.63,2.727,55
6337,-8.73,45.53,-5.62,-6.54,34.41,-3.66,2.722,59
6351,-8.78,45.71,-5.68,-6.58,34.56,-3.69,2.727,53
6366,-8.82,45.89,-5.72,-6.63,34.7,-3.71,2.727,49
6381,-8.87,46.06,-5.77,-6.63,34.7,-3.71,2.722,50
6394,-8.93,46.23,-5.83,-6.68,34.85,-3.74,2.727,50
6409,-8.99,46.4,-5.88,-6.71,35,-3.78,2.727,56
6424,-9.05,46.57,-5.94,-6.75,35.15,-3.81,2.722,52
6438,-9.11,46.74,-5.99,-6.79,35.29,-3.84,2.722,52
6453,-9.16,46.91,-6.04,-6.83,35.44,-3.87,2.727,52
6467,-9.21,47.09,-6.09,-6.83,35.44,-3.87,2.727,55
6481,-9.26,47.26,-6.13,-6.87,35.58,-3.9,2.722,56
6496,-9.31,47.43,-6.18,-6.92,35.73,-3.93,2.727,50
6510,-9.36,47.59,-6.24,-6.96,35.87,-3.97,2.722,50
6525,-9.42,47.76,-6.29,-7.01,36.02,-4,2.722,54
6539,-9.48,47.93,-6.34,-7.01,36.02,-4,2.727,50
6553,-9.55,48.09,-6.4,-7.05,36.16,-4.03,2.722,47
6568,-9.62,48.25,-6.45,-7.1,36.3,-4.06,2.722,46
6582,-9.69,48.41,-6.51,-7.15,36.44,-4.09,2.727,52
6597,-9.75,48.58,-6.56,-7.19,36.58,-4.12,2.727,48
6611,-9.81,48.73,-6.61,-7.19,36.58,-4.12,2.727,45
6625,-9.87,48.89,-6.67,-7.24,36.73,-4.15,2.727,50
6640,-9.93,49.06,-6.72,-7.3,36.87,-4.19,2.727,58
6654,-10,49.21,-6.78,-7.34,37.02,-4.22,2.722,53
6669,-10.07,49.37,-6.83,-7.39,37.17,-4.25,2.727,48
6684,-10.14,49.53,-6.9,-7.39,37.17,-4.25,2.722,45
6698,-10.22,49.68,-6.96,-7.43,37.31,-4.29,2.727,50
6712,-10.29,49.84,-7.02,-7.48,37.46,-4.33,2.727,49
6727,-10.37,50,-7.08,-7.52,37.6,-4.36,2.727,46
6741,-10.44,50.15,-7.14,-7.57,37.75,-4.4,2.722,44
6756,-10.52,50.31,-7.2,-7.61,37.9,-4.42,2.727,43
6770,-10.59,50.46,-7.26,-7.61,37.9,-4.42,2.722,50
6784,-10.67,50.61,-7.32,-7.64,38.05,-4.45,2.727,46
6799,-10.75,50.77,-7.39,-7.67,38.19,-4.47,2.722,44
6813,-10.83,50.93,-7.46,-7.71,38.34,-4.5,2.722,47
6828,-10.9,51.08,-7.51,-7.74,38.48,-4.53,2.727,52
6842,-10.97,51.23,-7.57,-7.74,38.48,-4.53,2.722,56
6856,-11.05,51.39,-7.64,-7.77,38.62,-4.55,2.727,50
6871,-11.12,51.55,-7.7,-7.79,38.76,-4.58,2.722,46
6885,-11.2,51.71,-7.76,-7.83,38.9,-4.61,2.727,44
6900,-11.26,51.86,-7.81,-7.86,39.04,-4.65,2.722,41
6914,-11.32,52.01,-7.87,-7.86,39.04,-4.65,2.722,47
6928,-11.38,52.17,-7.93,-7.88,39.18,-4.68,2.722,54
6943,-11.47,52.34,-8,-7.91,39.32,-4.71,2.722,49
6957,-11.54,52.5,-8.07,-7.95,39.46,-4.75,2.727,45
6972,-11.61,52.66,-8.13,-7.98,39.6,-4.78,2.727,48
6987,-11.66,52.81,-8.18,-8.02,39.73,-4.8,2.722,46
7001,-11.71,52.96,-8.23,-8.02,39.73,-4.8,2.727,43
7015,-11.76,53.12,-8.28,-8.07,39.87,-4.84,2.727,40
7030,-11.8,53.27,-8.33,-8.12,40.01,-4.88,2.727,46
7044,-11.85,53.43,-8.38,-8.17,40.14,-4.91,2.727,49
7059,-11.89,53.59,-8.44,-8.22,40.27,-4.95,2.722,46
7073,-11.94,53.75,-8.5,-8.22,40.27,-4.95,2.722,51
7087,-12.02,53.9,-8.56,-8.26,40.4,-4.98,2.727,48
7102,-12.1,54.06,-8.63,-8.31,40.53,-5.02,2.727,49
7116,-12.19,54.2,-8.7,-8.34,40.65,-5.06,2.727,45
7131,-12.28,54.34,-8.77,-8.38,40.78,-5.09,2.727,46
7145,-12.37,54.48,-8.84,-8.38,40.78,-5.09,2.722,46
7159,-12.45,54.63,-8.91,-8.42,40.91,-5.14,2.727,58
7174,-12.53,54.77,-8.98,-8.47,41.04,-5.18,2.727,52
7232,-12.61,54.92,-9.07,-8.51,41.17,-5.22,2.727,47
7246,-12.68,55.07,-9.14,-8.56,41.31,-5.26,2.727,44
7260,-12.76,55.21,-9.2,-8.6,41.44,-5.29,2.722,48
7275,-12.84,55.35,-9.28,-8.65,41.57,-5.33,2.727,45
7289,-12.92,55.5,-9.35,-8.68,41.71,-5.36,2.727,43
7304,-13,55.63,-9.42,-8.71,41.84,-5.4,2.722,45
7318,-13.08,55.76,-9.49,-8.73,41.97,-5.43,2.722,44
7332,-13.16,55.91,-9.56,-8.75,42.1,-5.47,2.727,58
7347,-13.23,56.05,-9.63,-8.78,42.22,-5.5,2.722,56
7361,-13.29,56.2,-9.7,-8.81,42.33,-5.53,2.722,51
7376,-13.34,56.34,-9.75,-8.85,42.45,-5.57,2.727,53
7390,-13.38,56.49,-9.82,-8.88,42.57,-5.6,2.727,48
7405,-13.43,56.64,-9.89,-8.92,42.7,-5.63,2.727,45
7419,-13.49,56.79,-9.96,-8.95,42.81,-5.67,2.722,43
7433,-13.56,56.94,-10.02,-9,42.94,-5.71,2.722,41
7448,-13.64,57.07,-10.1,-9,42.94,-5.71,2.722,42
7462,-13.72,57.21,-10.17,-9.05,43.06,-5.76,2.722,44
7476,-13.82,57.33,-10.25,-9.1,43.18,-5.81,2.727,48
7491,-13.91,57.47,-10.34,-9.14,43.3,-5.85,2.722,50
7505,-14,57.6,-10.42,-9.19,43.43,-5.89,2.727,46
7519,-14.08,57.74,-10.51,-9.19,43.43,-5.89,2.727,44
7533,-14.17,57.87,-10.58,-9.24,43.54,-5.93,2.727,42
7548,-14.26,58,-10.67,-9.29,43.66,-5.96,2.727,40
7562,-14.35,58.13,-10.75,-9.35,43.78,-6.01,2.727,40
7577,-14.45,58.26,-10.84,-9.39,43.9,-6.05,2.727,40
7591,-14.55,58.39,-10.93,-9.42,44.02,-6.09,2.727,40
7605,-14.65,58.52,-11.01,-9.42,44.02,-6.09,2.727,39
7619,-14.72,58.65,-11.09,-9.45,44.14,-6.12,2.727,46
7634,-14.78,58.78,-11.16,-9.48,44.25,-6.15,2.727,57
7648,-14.84,58.93,-11.23,-9.5,44.36,-6.19,2.722,53
7662,-14.89,59.06,-11.29,-9.53,44.47,-6.22,2.727,48
7677,-14.96,59.2,-11.37,-9.53,44.47,-6.22,2.727,47
7691,-15.01,59.34,-11.45,-9.55,44.59,-6.26,2.722,44
7705,-15.07,59.48,-11.52,-9.58,44.7,-6.3,2.722,42
7720,-15.13,59.6,-11.59,-9.61,44.82,-6.34,2.727,48
7734,-15.22,59.74,-11.68,-9.65,44.94,-6.38,2.722,46
7748,-15.29,59.87,-11.76,-9.65,44.94,-6.38,2.727,44
7762,-15.29,59.87,-11.76,-9.69,45.05,-6.41,2.722,47
7776,-15.38,60,-11.84,-9.74,45.17,-6.46,2.727,55
7790,-15.48,60.13,-11.94,-9.8,45.29,-6.51,2.722,51
7805,-15.59,60.25,-12.04,-9.86,45.41,-6.56,2.727,48
7820,-15.7,60.37,-12.13,-9.86,45.41,-6.56,2.722,45
7834,-15.7,60.37,-12.13,-9.92,45.52,-6.6,2.722,51
7848,-15.82,60.49,-12.25,-9.98,45.63,-6.65,2.727,47
7863,-15.96,60.6,-12.36,-10.05,45.75,-6.7,2.727,45
7877,-16.09,60.72,-12.47,-10.12,45.86,-6.75,2.727,52
7892,-16.22,60.84,-12.58,-10.12,45.86,-6.75,2.727,49
7906,-16.35,60.96,-12.69,-10.19,45.97,-6.8,2.727,46
7921,-16.35,60.96,-12.69,-10.26,46.08,-6.85,2.727,44
7933,-16.47,61.08,-12.81,-10.31,46.19,-6.9,2.727,43
7948,-16.6,61.2,-12.91,-10.37,46.3,-6.95,2.722,54
7963,-16.71,61.33,-13.01,-10.37,46.3,-6.95,2.727,49
7977,-16.83,61.44,-13.11,-10.43,46.41,-7,2.727,46
7991,-16.83,61.44,-13.11,-10.49,46.53,-7.05,2.727,45
8006,-16.95,61.56,-13.22,-10.54,46.64,-7.09,2.727,59
8020,-17.06,61.69,-13.33,-10.59,46.75,-7.14,2.727,53
8035,-17.17,61.81,-13.43,-10.59,46.75,-7.14,2.727,49
8049,-17.28,61.94,-13.54,-10.64,46.86,-7.18,2.727,52
8064,-17.28,61.94,-13.54,-10.68,46.96,-7.22,2.727,48
8078,-17.37,62.06,-13.63,-10.72,47.07,-7.27,2.722,47
8093,-17.46,62.18,-13.73,-10.77,47.18,-7.31,2.722,52
8108,-17.56,62.3,-13.83,-10.82,47.29,-7.36,2.727,51
8122,-17.67,62.41,-13.93,-10.82,47.29,-7.36,2.722,53
8137,-17.77,62.53,-14.04,-10.86,47.4,-7.4,2.727,53
8151,-17.77,62.53,-14.04,-10.9,47.5,-7.44,2.727,49
8166,-17.87,62.64,-14.14,-10.94,47.61,-7.48,2.727,46
8181,-17.96,62.76,-14.23,-10.98,47.71,-7.52,2.727,44
8195,-18.06,62.87,-14.33,-11.02,47.81,-7.56,2.727,43
8210,-18.17,62.98,-14.44,-11.02,47.81,-7.56,2.727,42
8224,-18.27,63.1,-14.54,-11.06,47.91,-7.6,2.727,41
8239,-18.27,63.1,-14.54,-11.09,48.01,-7.63,2.727,40
8253,-18.37,63.21,-14.65,-11.13,48.12,-7.67,2.727,39
8268,-18.45,63.32,-14.73,-11.17,48.22,-7.71,2.722,41
8283,-18.53,63.43,-14.81,-11.17,48.22,-7.71,2.727,58
8297,-18.6,63.54,-14.91,-11.2,48.33,-7.75,2.727,56
8312,-18.6,63.54,-14.91,-11.23,48.43,-7.8,2.727,51
8326,-18.68,63.66,-15.01,-11.26,48.54,-7.85,2.727,47
8341,-18.78,63.79,-15.11,-11.29,48.64,-7.9,2.722,45
8356,-18.87,63.92,-15.23,-11.32,48.75,-7.94,2.722,44
8371,-18.96,64.04,-15.33,-11.32,48.75,-7.94,2.727,42
8385,-19.04,64.15,-15.43,-11.36,48.85,-7.98,2.727,49
8400,-19.04,64.15,-15.43,-11.4,48.95,-8.02,2.722,46
8414,-19.13,64.26,-15.52,-11.43,49.05,-8.07,2.727,47
8429,-19.22,64.37,-15.61,-11.47,49.15,-8.12,2.727,50
8443,-19.32,64.49,-15.72,-11.47,49.15,-8.12,2.722,46
8458,-19.42,64.62,-15.84,-11.5,49.25,-8.16,2.727,45
8472,-19.52,64.73,-15.94,-11.53,49.35,-8.2,2.727,45
8487,-19.52,64.73,-15.94,-11.57,49.45,-8.25,2.727,45
8501,-19.61,64.85,-16.04,-11.61,49.55,-8.29,2.722,51
8516,-19.7,64.95,-16.12,-11.65,49.65,-8.32,2.727,48
8531,-19.8,65.06,-16.22,-11.65,49.65,-8.32,2.727,49
8545,-19.9,65.17,-16.32,-11.69,49.75,-8.36,2.722,46
8560,-19.9,65.17,-16.32,-11.73,49.84,-8.4,2.722,45
8574,-20.02,65.28,-16.43,-11.78,49.94,-8.45,2.727,42
8589,-20.13,65.39,-16.55,-11.83,50.04,-8.5,2.727,50
8604,-20.22,65.51,-16.66,-11.83,50.04,-8.5,2.727,46
8618,-20.32,65.62,-16.76,-11.86,50.14,-8.55,2.727,54
8633,-20.42,65.74,-16.86,-11.9,50.24,-8.6,2.722,51
8648,-20.42,65.74,-16.86,-11.94,50.33,-8.64,2.722,60
8662,-20.54,65.84,-16.98,-11.99,50.42,-8.68,2.727,53
8677,-20.67,65.95,-17.09,-12.04,50.51,-8.73,2.722,48
8691,-20.82,66.05,-17.23,-12.04,50.51,-8.73,2.727,45
8706,-20.95,66.16,-17.36,-12.09,50.61,-8.78,2.727,43
8720,-21.08,66.27,-17.48,-12.13,50.7,-8.83,2.722,51
8735,-21.08,66.27,-17.48,-12.18,50.8,-8.87,2.722,53
8750,-21.21,66.37,-17.6,-12.24,50.89,-8.92,2.722,50
8764,-21.35,66.46,-17.72,-12.29,50.99,-8.97,2.727,46
8779,-21.48,66.56,-17.85,-12.29,50.99,-8.97,2.722,44
8793,-21.62,66.66,-17.99,-12.34,51.09,-9.02,2.727,44
8808,-21.62,66.66,-17.99,-12.39,51.18,-9.07,2.722,45
8822,-21.75,66.75,-18.13,-12.43,51.27,-9.11,2.727,61
8837,-21.88,66.86,-18.25,-12.48,51.36,-9.16,2.727,54
8852,-22.03,66.96,-18.41,-12.48,51.36,-9.16,2.727,58
8866,-22.16,67.06,-18.53,-12.53,51.44,-9.21,2.722,53
8881,-22.29,67.15,-18.65,-12.56,51.53,-9.25,2.722,49
8896,-22.29,67.15,-18.65,-12.61,51.62,-9.29,2.722,47
8910,-22.42,67.26,-18.76,-12.67,51.71,-9.34,2.727,45
8925,-22.56,67.35,-18.89,-12.73,51.81,-9.4,2.722,43
8939,-22.71,67.45,-19.04,-12.73,51.81,-9.4,2.727,50
8954,-22.84,67.56,-19.18,-12.78,51.9,-9.45,2.727,47
8968,-22.98,67.66,-19.32,-12.82,51.99,-9.5,2.722,46
8983,-22.98,67.66,-19.32,-12.87,52.08,-9.55,2.727,45
8997,-23.13,67.76,-19.47,-12.93,52.17,-9.61,2.727,48
9012,-23.26,67.86,-19.6,-12.93,52.17,-9.61,2.727,65
9027,-23.4,67.96,-19.74,-12.98,52.27,-9.66,2.727,57
9041,-23.55,68.05,-19.87,-13.03,52.35,-9.7,2.727,54
9056,-23.55,68.05,-19.87,-13.1,52.44,-9.75,2.727,52
9071,-23.71,68.14,-20.02,-13.15,52.53,-9.8,2.727,48
9085,-23.85,68.23,-20.16,-13.21,52.62,-9.85,2.727,44
9100,-23.99,68.33,-20.28,-13.21,52.62,-9.85,2.727,43
9114,-24.12,68.42,-20.41,-13.27,52.71,-9.91,2.732,43
9129,-24.27,68.52,-20.55,-13.32,52.8,-9.96,2.727,59
9144,-24.27,68.52,-20.55,-13.37,52.89,-10.01,2.727,56
9158,-24.41,68.62,-20.69,-13.42,52.98,-10.06,2.727,52
9173,-24.53,68.71,-20.82,-13.42,52.98,-10.06,2.727,52
9187,-24.66,68.81,-20.95,-13.47,53.06,-10.12,2.727,47
9202,-24.81,68.91,-21.1,-13.52,53.14,-10.17,2.727,44
9217,-24.96,69,-21.24,-13.57,53.23,-10.21,2.727,42
9232,-24.96,69,-21.24,-13.61,53.32,-10.26,2.722,44
9246,-25.1,69.1,-21.38,-13.65,53.41,-10.3,2.722,46
9261,-25.24,69.19,-21.53,-13.65,53.41,-10.3,2.727,50
9275,-25.4,69.28,-21.68,-13.7,53.5,-10.35,2.727,62
9290,-25.55,69.38,-21.84,-13.74,53.58,-10.4,2.722,60
9304,-25.55,69.38,-21.84,-13.79,53.67,-10.46,2.727,57
9319,-25.69,69.47,-21.98,-13.84,53.76,-10.5,2.722,52
9333,-25.83,69.56,-22.13,-13.88,53.84,-10.56,2.727,49
9348,-25.97,69.65,-22.27,-13.88,53.84,-10.56,2.727,47
9362,-26.12,69.74,-22.41,-13.93,53.93,-10.61,2.722,52
9377,-26.27,69.83,-22.57,-13.98,54.01,-10.66,2.727,54
9392,-26.27,69.83,-22.57,-14.03,54.09,-10.71,2.722,49
9406,-26.43,69.92,-22.73,-14.07,54.16,-10.76,2.722,46
9421,-26.59,70.02,-22.89,-14.07,54.16,-10.76,2.722,44
9435,-26.74,70.1,-23.03,-14.11,54.25,-10.8,2.722,42
9450,-26.86,70.18,-23.15,-14.17,54.33,-10.86,2.722,51
9465,-27,70.26,-23.29,-14.21,54.41,-10.91,2.722,48
9480,-27,70.26,-23.29,-14.26,54.49,-10.96,2.727,49
9494,-27.13,70.35,-23.43,-14.3,54.57,-11.01,2.727,62
9509,-27.27,70.44,-23.58,-14.3,54.57,-11.01,2.727,58
9523,-27.41,70.53,-23.72,-14.35,54.64,-11.05,2.727,52
9538,-27.57,70.6,-23.88,-14.4,54.71,-11.1,2.727,49
9552,-27.57,70.6,-23.88,-14.45,54.79,-11.14,2.727,48
9567,-27.72,70.68,-24.02,-14.5,54.87,-11.2,2.727,45
9581,-27.87,70.77,-24.17,-14.5,54.87,-11.2,2.727,47
9596,-28.03,70.86,-24.34,-14.54,54.95,-11.25,2.722,47
9610,-28.2,70.94,-24.5,-14.59,55.03,-11.3,2.727,44
9625,-28.35,71.02,-24.65,-14.64,55.11,-11.35,2.727,44
9640,-28.35,71.02,-24.65,-14.7,55.19,-11.41,2.727,61
9654,-28.51,71.1,-24.81,-14.76,55.27,-11.47,2.727,54
9669,-28.67,71.19,-24.97,-14.76,55.27,-11.47,2.727,50
9683,-28.8,71.27,-25.12,-14.81,55.35,-11.53,2.727,48
9698,-28.96,71.36,-25.29,-14.86,55.43,-11.59,2.727,51
9713,-29.1,71.45,-25.44,-14.91,55.52,-11.65,2.727,47
9728,-29.1,71.45,-25.44,-14.96,55.6,-11.7,2.727,46
9742,-29.27,71.53,-25.61,-14.96,55.6,-11.7,2.727,43
9756,-29.43,71.61,-25.78,-15.01,55.67,-11.76,2.722,41
9771,-29.59,71.69,-25.94,-15.05,55.75,-11.8,2.727,44
9786,-29.75,71.77,-26.1,-15.1,55.83,-11.85,2.727,48
9801,-29.75,71.77,-26.1,-15.15,55.91,-11.9,2.727,45
9815,-29.91,71.85,-26.26,-15.2,55.98,-11.96,2.727,45
9829,-30.08,71.93,-26.43,-15.2,55.98,-11.96,2.722,47
9844,-30.25,72.01,-26.6,-15.26,56.06,-12.02,2.727,46
9859,-30.43,72.09,-26.77,-15.31,56.15,-12.07,2.727,44
9873,-30.59,72.17,-26.94,-15.36,56.22,-12.13,2.727,41
9888,-30.59,72.17,-26.94,-15.4,56.3,-12.18,2.727,50
9902,-30.76,72.25,-27.13,-15.44,56.38,-12.22,2.727,52
9917,-30.92,72.33,-27.3,-15.44,56.38,-12.22,2.722,56
9931,-31.09,72.41,-27.46,-15.49,56.45,-12.28,2.722,59
9946,-31.26,72.49,-27.63,-15.55,56.53,-12.34,2.722,53
10002,-31.45,72.57,-27.81,-15.6,56.61,-12.39,2.727,56
10016,-31.67,72.65,-28.04,-15.66,56.69,-12.45,2.727,56
10031,-31.88,72.73,-28.25,-15.72,56.77,-12.51,2.722,62
10046,-32.07,72.8,-28.43,-15.78,56.85,-12.56,2.727,56
10061,-32.27,72.87,-28.63,-15.83,56.92,-12.61,2.727,50
10075,-32.48,72.94,-28.83,-15.88,56.99,-12.66,2.727,46
10090,-32.7,73.02,-29.04,-15.95,57.06,-12.72,2.722,43
10105,-32.91,73.09,-29.25,-16,57.14,-12.77,2.727,43
10119,-33.09,73.16,-29.41,-16.05,57.21,-12.82,2.727,47
10134,-33.28,73.22,-29.6,-16.1,57.28,-12.87,2.727,52
10149,-33.48,73.29,-29.78,-16.17,57.35,-12.94,2.722,53
10163,-33.68,73.36,-29.98,-16.23,57.42,-13,2.727,48
10178,-33.88,73.43,-30.19,-16.28,57.49,-13.04,2.727,49
10193,-34.04,73.5,-30.36,-16.33,57.56,-13.1,2.727,45
10207,-34.04,73.5,-30.36,-16.37,57.62,-13.15,2.727,42
10222,-34.21,73.57,-30.52,-16.37,57.62,-13.15,2.722,43
10236,-34.39,73.64,-30.7,-16.43,57.69,-13.2,2.727,49
10250,-34.61,73.7,-30.91,-16.48,57.76,-13.26,2.732,45
10265,-34.82,73.76,-31.11,-16.54,57.83,-13.3,2.727,50
10280,-35.06,73.83,-31.34,-16.6,57.89,-13.36,2.727,58
10294,-35.06,73.83,-31.34,-16.66,57.97,-13.43,2.727,52
10309,-35.26,73.9,-31.54,-16.66,57.97,-13.43,2.727,47
10323,-35.45,73.97,-31.73,-16.72,58.03,-13.49,2.727,46
10337,-35.64,74.03,-31.92,-16.77,58.11,-13.54,2.727,44
10352,-35.83,74.1,-32.1,-16.83,58.18,-13.6,2.727,45
10367,-35.83,74.1,-32.1,-16.88,58.25,-13.65,2.722,45
10381,-36.02,74.17,-32.28,-16.88,58.25,-13.65,2.727,43
10395,-36.22,74.23,-32.49,-16.94,58.32,-13.71,2.727,42
10409,-36.43,74.3,-32.71,-17,58.38,-13.77,2.727,40
10424,-36.65,74.36,-32.93,-17.05,58.45,-13.82,2.727,50
10439,-36.85,74.41,-33.12,-17.11,58.52,-13.88,2.722,53
10453,-36.85,74.41,-33.12,-17.11,58.52,-13.88,2.727,50
10467,-37.07,74.47,-33.32,-17.17,58.59,-13.94,2.727,47
10482,-37.24,74.52,-33.48,-17.23,58.65,-14,2.727,46
10496,-37.45,74.58,-33.69,-17.28,58.71,-14.05,2.727,48
10511,-37.65,74.64,-33.89,-17.34,58.77,-14.1,2.727,45
10526,-37.65,74.64,-33.89,-17.38,58.83,-14.15,2.722,42
10540,-37.86,74.7,-34.1,-17.38,58.83,-14.15,2.727,41
10554,-38.06,74.76,-34.3,-17.44,58.9,-14.2,2.732,40
10569,-38.26,74.81,-34.5,-17.48,58.96,-14.25,2.722,53
10583,-38.47,74.87,-34.72,-17.52,59.02,-14.3,2.727,53
10598,-38.68,74.94,-34.95,-17.57,59.08,-14.36,2.727,50
10613,-38.68,74.94,-34.95,-17.57,59.08,-14.36,2.727,57
10626,-38.89,75,-35.16,-17.62,59.14,-14.42,2.727,54
10641,-39.09,75.05,-35.36,-17.67,59.2,-14.48,2.722,50
10656,-39.31,75.11,-35.58,-17.73,59.27,-14.53,2.727,47
10670,-39.54,75.16,-35.8,-17.78,59.32,-14.59,2.727,44
10685,-39.54,75.16,-35.8,-17.84,59.39,-14.65,2.727,42
10699,-39.73,75.21,-36.01,-17.84,59.39,-14.65,2.727,54
10713,-39.93,75.26,-36.21,-17.88,59.45,-14.71,2.727,49
10728,-40.15,75.32,-36.44,-17.92,59.5,-14.77,2.727,45
10743,-40.37,75.38,-36.67,-17.97,59.56,-14.82,2.727,47
10757,-40.57,75.43,-36.87,-18.01,59.62,-14.87,2.727,48
10772,-40.57,75.43,-36.87,-18.01,59.62,-14.87,2.727,45
10786,-40.76,75.49,-37.07,-18.06,59.68,-14.92,2.727,43
10800,-40.97,75.54,-37.29,-18.11,59.74,-14.98,2.727,48
10815,-41.19,75.6,-37.53,-18.15,59.79,-15.04,2.727,47
10828,-41.19,75.6,-37.53,-18.2,59.84,-15.09,2.722,59
10842,-41.4,75.66,-37.75,-18.2,59.84,-15.09,2.727,56
10856,-41.61,75.71,-37.97,-18.24,59.9,-15.14,2.727,53
10871,-41.84,75.76,-38.19,-18.3,59.96,-15.2,2.727,48
10886,-42.07,75.81,-38.42,-18.34,60.02,-15.26,2.727,46
10900,-42.29,75.86,-38.65,-18.4,60.08,-15.32,2.727,58
10915,-42.29,75.86,-38.65,-18.4,60.08,-15.32,2.727,56
10929,-42.52,75.92,-38.88,-18.45,60.14,-15.38,2.727,57
10944,-42.74,75.97,-39.11,-18.51,60.2,-15.45,2.727,55
10959,-42.96,76.02,-39.33,-18.56,60.25,-15.51,2.727,49
10974,-43.19,76.07,-39.57,-18.61,60.31,-15.57,2.727,48
10988,-43.43,76.12,-39.82,-18.66,60.37,-15.63,2.727,46
11003,-43.43,76.12,-39.82,-18.66,60.37,-15.63,2.727,52
11017,-43.67,76.17,-40.07,-18.73,60.43,-15.69,2.727,53
11032,-43.92,76.22,-40.32,-18.79,60.49,-15.76,2.727,58
11046,-44.17,76.27,-40.57,-18.85,60.54,-15.82,2.727,65
11061,-44.42,76.31,-40.81,-18.91,60.59,-15.88,2.727,57
11076,-44.42,76.31,-40.81,-18.91,60.59,-15.88,2.727,52
11090,-44.65,76.35,-41.03,-18.97,60.64,-15.94,2.727,57
11104,-44.9,76.39,-41.28,-19.03,60.7,-15.99,2.727,51
11119,-45.15,76.43,-41.53,-19.09,60.75,-16.06,2.727,56
11134,-45.41,76.47,-41.8,-19.16,60.79,-16.13,2.727,52
11149,-45.65,76.52,-42.05,-19.21,60.85,-16.19,2.727,58
11164,-45.65,76.52,-42.05,-19.21,60.85,-16.19,2.722,56
11177,-45.89,76.56,-42.28,-19.27,60.9,-16.25,2.727,60
11192,-46.13,76.6,-42.52,-19.33,60.96,-16.31,2.727,56
11207,-46.38,76.65,-42.78,-19.39,61.01,-16.38,2.727,51
11222,-46.66,76.69,-43.05,-19.45,61.06,-16.44,2.727,47
11236,-46.92,76.73,-43.3,-19.51,61.12,-16.5,2.727,60
11251,-46.92,76.73,-43.3,-19.51,61.12,-16.5,2.727,54
11265,-47.16,76.77,-43.54,-19.56,61.17,-16.56,2.727,59
11280,-47.4,76.81,-43.78,-19.62,61.22,-16.62,2.727,58
11294,-47.64,76.85,-44.02,-19.68,61.28,-16.68,2.727,57
11309,-47.89,76.89,-44.28,-19.73,61.33,-16.73,2.727,52
11324,-47.89,76.89,-44.28,-19.73,61.33,-16.73,2.722,47
11338,-48.16,76.93,-44.55,-19.79,61.37,-16.79,2.727,45
11353,-48.41,76.97,-44.8,-19.85,61.43,-16.86,2.727,74
11367,-48.64,77.01,-45.02,-19.91,61.48,-16.92,2.727,69
11382,-48.9,77.05,-45.29,-19.98,61.54,-16.99,2.727,59
11397,-49.19,77.09,-45.57,-20.03,61.59,-17.04,2.727,53
11412,-49.19,77.09,-45.57,-20.03,61.59,-17.04,2.722,49
11425,-49.48,77.13,-45.86,-20.08,61.64,-17.09,2.727,46
11440,-49.75,77.17,-46.14,-20.14,61.69,-17.15,2.727,43
11455,-49.97,77.22,-46.37,-20.18,61.73,-17.2,2.722,48
11470,-50.21,77.26,-46.61,-20.23,61.78,-17.26,2.727,53
11485,-50.48,77.3,-46.89,-20.23,61.78,-17.26,2.727,48
11499,-50.48,77.3,-46.89,-20.28,61.83,-17.32,2.727,44
11513,-50.75,77.34,-47.15,-20.33,61.88,-17.38,2.727,43
11528,-51.01,77.37,-47.41,-20.39,61.93,-17.44,2.727,41
11543,-51.23,77.41,-47.65,-20.43,61.99,-17.5,2.727,40
11557,-51.47,77.44,-47.89,-20.49,62.04,-17.56,2.727,40
11572,-51.47,77.44,-47.89,-20.49,62.04,-17.56,2.722,62
11586,-51.73,77.48,-48.16,-20.55,62.09,-17.63,2.722,60
11601,-51.99,77.52,-48.43,-20.6,62.14,-17.69,2.727,64
11615,-52.27,77.55,-48.71,-20.66,62.2,-17.75,2.727,56
11630,-52.55,77.59,-49,-20.72,62.25,-17.82,2.727,50
11645,-52.8,77.63,-49.26,-20.76,62.3,-17.87,2.727,45
11660,-52.8,77.63,-49.26,-20.76,62.3,-17.87,2.727,45
11674,-53.06,77.66,-49.52,-20.81,62.35,-17.94,2.727,52
11688,-53.3,77.7,-49.76,-20.86,62.4,-17.98,2.727,66
11703,-53.58,77.72,-50.03,-20.92,62.44,-18.04,2.722,65
11718,-53.87,77.75,-50.32,-20.98,62.49,-18.11,2.722,60
11733,-54.15,77.79,-50.6,-20.98,62.49,-18.11,2.727,53
11747,-54.15,77.79,-50.6,-21.03,62.54,-18.17,2.722,49
11759,-54.38,77.82,-50.84,-21.08,62.58,-18.23,2.722,47
11774,-54.62,77.85,-51.09,-21.14,62.63,-18.29,2.722,52
11789,-54.87,77.89,-51.34,-21.18,62.68,-18.34,2.727,60
11804,-55.12,77.91,-51.6,-21.18,62.68,-18.34,2.722,56
11818,-55.12,77.91,-51.6,-21.23,62.73,-18.39,2.727,72
11832,-55.38,77.95,-51.85,-21.28,62.77,-18.44,2.727,73
11847,-55.66,77.97,-52.14,-21.33,62.82,-18.5,2.727,66
11862,-55.93,78,-52.4,-21.38,62.86,-18.55,2.727,58
11877,-56.18,78.03,-52.65,-21.43,62.91,-18.6,2.722,64
11892,-56.45,78.06,-52.92,-21.43,62.91,-18.6,2.722,57
11906,-56.45,78.06,-52.92,-21.48,62.95,-18.66,2.722,70
11920,-56.72,78.08,-53.19,-21.53,63,-18.71,2.722,61
11935,-57,78.1,-53.47,-21.58,63.04,-18.76,2.722,56
11950,-57.27,78.12,-53.73,-21.63,63.08,-18.81,2.727,52
11965,-57.51,78.15,-53.97,-21.63,63.08,-18.81,2.722,48
11979,-57.51,78.15,-53.97,-21.69,63.13,-18.86,2.722,73
11993,-57.75,78.18,-54.22,-21.74,63.17,-18.91,2.727,77
12008,-58,78.2,-54.48,-21.78,63.21,-18.96,2.722,72
12023,-58.24,78.22,-54.73,-21.81,63.25,-19,2.722,70
12037,-58.52,78.25,-55.02,-21.85,63.29,-19.05,2.727,66
12052,-58.78,78.27,-55.28,-21.85,63.29,-19.05,2.722,68
12066,-58.78,78.27,-55.28,-21.88,63.32,-19.08,2.722,74
12080,-59.03,78.29,-55.54,-21.92,63.35,-19.13,2.722,78
12095,-59.28,78.31,-55.8,-21.94,63.39,-19.17,2.722,66
12110,-59.48,78.33,-56.02,-21.96,63.42,-19.21,2.722,62
12125,-59.65,78.36,-56.21,-21.98,63.46,-19.25,2.722,71
12140,-59.8,78.39,-56.39,-21.98,63.46,-19.25,2.722,81
12160,-59.95,78.41,-56.57,-22,63.49,-19.29,2.722,88
12176,-60.04,78.44,-56.71,-22.01,63.52,-19.33,2.722,75
12192,-60.04,78.44,-56.71,-22.01,63.56,-19.4,2.722,72
12207,-59.95,78.49,-56.72,-21.96,63.59,-19.47,2.722,69
12223,-59.84,78.58,-56.77,-21.88,63.6,-19.53,2.722,102
12238,-59.74,78.67,-56.81,-21.79,63.6,-19.52,2.722,93
12254,-59.5,78.74,-56.66,-21.75,63.6,-19.52,2.722,98
12270,-59.33,78.79,-56.54,-21.75,63.59,-19.52,2.722,82
12286,-59.19,78.84,-56.45,-21.77,63.59,-19.57,2.722,75
12301,-59.12,78.9,-56.45,-21.77,63.59,-19.57,2.722,72
12315,-59.12,78.9,-56.45,-21.74,63.6,-19.62,2.722,83
12329,-58.94,78.97,-56.37,-21.69,63.6,-19.64,2.722,77
12344,-58.66,79.03,-56.17,-21.65,63.59,-19.64,2.727,68
12358,-58.32,79.07,-55.87,-21.65,63.57,-19.61,2.722,68
12373,-58.01,79.1,-55.56,-21.65,63.57,-19.61,2.722,76
12387,-58.01,79.1,-55.56,-21.66,63.56,-19.61,2.722,66
12401,-57.74,79.14,-55.3,-21.65,63.55,-19.63,2.717,58
12415,-57.48,79.18,-55.1,-21.61,63.52,-19.64,2.727,56
12430,-57.16,79.22,-54.86,-21.56,63.49,-19.64,2.722,51
12444,-56.8,79.24,-54.57,-21.56,63.49,-19.64,2.717,49
12458,-56.37,79.27,-54.19,-21.49,63.45,-19.62,2.722,48
12473,-56.37,79.27,-54.19,-21.43,63.4,-19.6,2.722,46
12487,-55.84,79.3,-53.68,-21.38,63.35,-19.57,2.722,44
12501,-55.3,79.31,-53.15,-21.32,63.29,-19.55,2.722,42
12516,-54.65,79.31,-52.53,-21.32,63.29,-19.55,2.722,39
12530,-53.91,79.3,-51.83,-21.23,63.23,-19.51,2.722,39
12544,-53.91,79.3,-51.83,-21.11,63.17,-19.47,2.722,38
12558,-53.16,79.3,-51.13,-20.96,63.09,-19.41,2.722,38
12573,-52.34,79.29,-50.38,-20.78,63.03,-19.35,2.722,37
12587,-51.41,79.29,-49.53,-20.57,62.97,-19.27,2.722,37
12602,-50.59,79.29,-48.78,-20.57,62.97,-19.27,2.722,36
12616,-50.59,79.29,-48.78,-20.36,62.93,-19.21,2.727,36
12630,-49.87,79.31,-48.12,-20.11,62.91,-19.13,2.727,36
12644,-49.23,79.33,-47.58,-19.86,62.89,-19.04,2.727,36
12659,-48.58,79.35,-47.06,-19.58,62.89,-18.95,2.727,36
12673,-47.98,79.38,-46.57,-19.58,62.89,-18.95,2.727,36
12687,-47.98,79.38,-46.57,-19.31,62.9,-18.86,2.727,36
12701,-47.39,79.43,-46.09,-19.06,62.93,-18.77,2.727,36
12716,-46.72,79.47,-45.53,-18.85,62.98,-18.71,2.737,36
12730,-45.96,79.51,-44.92,-18.64,63.04,-18.63,2.737,36
12846,-44.96,79.55,-44.03,-18.45,63.11,-18.56,2.81,36
12861,-43.99,79.62,-43.14,-18.3,63.22,-18.48,2.825,38
12875,-43.08,79.69,-42.34,-18.19,63.32,-18.4,2.83,37
12890,-42.21,79.75,-41.54,-18.13,63.44,-18.32,2.84,38
12904,-41.03,79.75,-40.39,-18.18,63.58,-18.33,2.84,41
12918,-39.79,79.75,-39.17,-18.39,63.76,-18.57,2.84,44
12933,-38.44,79.77,-37.92,-18.85,63.94,-19.17,2.84,42
12947,-37.75,79.85,-37.37,-19.58,64.07,-20.17,2.845,41
12962,-37.77,79.98,-37.65,-20.55,64.1,-21.43,2.84,42
12976,-38.32,80.07,-38.47,-21.68,64.09,-22.78,2.835,41
12990,-39.05,80.14,-39.38,-22.92,64.04,-24.1,2.835,41
13005,-40.16,80.24,-40.59,-24.34,63.98,-25.44,2.825,41
13019,-41.77,80.38,-42.21,-26.02,63.91,-26.9,2.82,42
13034,-43.72,80.54,-44.05,-27.9,63.87,-28.49,2.815,51
13048,-45.81,80.63,-45.88,-29.94,63.86,-30.16,2.801,64
13063,-47.75,80.67,-47.49,-32.1,63.88,-31.93,2.791,77
13077,-49.6,80.67,-49.02,-34.31,63.92,-33.75,2.781,82
13091,-51.39,80.67,-50.54,-36.49,64,-35.61,2.766,101
13106,-53.34,80.66,-52.34,-38.56,64.05,-37.38,2.761,99
13120,-55.51,80.67,-54.38,-40.51,64.11,-39.01,2.752,98
13135,-57.6,80.65,-56.34,-42.02,64.15,-40.35,2.761,137
13149,-59.84,80.64,-58.44,-42.62,64.36,-41.11,2.766,208
13164,-61.81,80.59,-60.3,-41.57,64.43,-40.43,2.761,204
13178,-62.46,80.96,-61.06,-42.02,64.6,-41.06,2.761,173
13192,-64.15,81.16,-62.97,-42.45,64.79,-41.58,2.761,199
13207,-66.46,81.05,-65.4,-42.4,64.95,-41.43,2.761,248
13221,-69.26,80.87,-68.22,-42.57,65.15,-41.15,2.761,256
13236,-71.93,80.6,-70.66,-42.81,65.41,-40.9,2.766,264
13250,-74.88,80.26,-73.27,-43.02,65.67,-40.71,2.771,333
13265,-77.79,79.96,-75.88,-43.03,65.94,-40.49,2.771,330
13279,-80.36,79.71,-78.2,-43.03,65.94,-40.49,2.776,454
13293,-82.46,79.47,-79.96,-43.01,66.24,-40.22,2.781,526
13307,-82.46,79.47,-79.96,-43.09,66.46,-40.01,2.781,581
13321,-84.13,79.22,-81.24,-43.26,66.65,-39.89,2.786,750
13335,-85.55,78.97,-82.29,-43.53,66.85,-39.9,2.791,738
13350,-87.11,78.76,-83.5,-43.53,66.85,-39.9,2.791,759
13364,-88.54,78.57,-84.65,-43.84,67.03,-40.01,2.796,680
13378,-88.54,78.57,-84.65,-44.24,67.18,-40.26,2.796,711
13392,-89.56,78.44,-85.43,-44.71,67.3,-40.59,2.805,690
13406,-90.33,78.37,-86.06,-45.2,67.38,-40.98,2.805,576
13421,-91.01,78.35,-86.67,-45.2,67.38,-40.98,2.81,529
13435,-91.53,78.35,-87.22,-45.72,67.45,-41.41,2.815,429
13449,-91.53,78.35,-87.22,-46.27,67.51,-41.86,2.815,376
13463,-91.81,78.35,-87.61,-46.8,67.54,-42.34,2.815,370
13477,-92.03,78.36,-88.01,-47.22,67.57,-42.76,2.815,347
13492,-92.13,78.39,-88.39,-47.22,67.57,-42.76,2.815,338
13505,-92.29,78.41,-88.83,-47.54,67.6,-43.08,2.815,348
13520,-92.29,78.41,-88.83,-47.81,67.63,-43.33,2.81,324
13534,-92.56,78.42,-89.34,-48.03,67.65,-43.55,2.815,364
13548,-92.88,78.42,-89.83,-48.19,67.67,-43.68,2.81,328
13563,-93.19,78.42,-90.25,-48.19,67.67,-43.68,2.81,406
13576,-93.5,78.41,-90.59,-48.36,67.68,-43.81,2.81,383
13591,-93.5,78.41,-90.59,-48.48,67.68,-43.87,2.81,321
13605,-93.72,78.41,-90.78,-48.66,67.67,-43.92,2.81,322
13619,-94.09,78.4,-91.09,-48.83,67.66,-43.9,2.81,264
13633,-94.11,78.41,-91.04,-48.83,67.66,-43.9,2.81,300
13647,-93.71,78.43,-90.72,-48.95,67.64,-44.02,2.805,295
13662,-93.71,78.43,-90.72,-48.84,67.59,-44.01,2.805,277
13676,-93.31,78.49,-90.59,-48.64,67.53,-43.93,2.805,294
13690,-92.64,78.59,-90.36,-48.42,67.49,-43.78,2.796,314
13704,-92.31,78.68,-90.44,-48.42,67.49,-43.78,2.796,316
13718,-92.1,78.73,-90.59,-48.22,67.45,-43.61,2.791,310
13733,-92.1,78.73,-90.59,-48,67.41,-43.38,2.786,411
13747,-91.93,78.73,-90.7,-47.7,67.39,-43.15,2.786,465
13761,-91.43,78.71,-90.47,-47.28,67.37,-42.95,2.786,428
13776,-91,78.67,-90.37,-47.28,67.37,-42.95,2.781,393
13790,-90.64,78.63,-90.37,-46.76,67.34,-42.66,2.781,325
13804,-90.64,78.63,-90.37,-46.27,67.33,-42.3,2.781,406
13818,-90.43,78.57,-90.39,-45.85,67.33,-41.89,2.781,422
13833,-90.52,78.47,-90.57,-45.51,67.33,-41.46,2.786,396
13847,-90.57,78.34,-90.54,-45.51,67.33,-41.46,2.786,366
13861,-90.6,78.2,-90.42,-45.23,67.33,-41.05,2.791,406
13876,-90.51,78.06,-90.21,-44.92,67.31,-40.64,2.796,433
13890,-90.51,78.06,-90.21,-44.61,67.3,-40.25,2.796,430
13904,-90.37,77.94,-89.98,-44.26,67.29,-39.88,2.801,452
13919,-90.13,77.84,-89.73,-44.26,67.29,-39.88,2.805,442
13933,-89.9,77.75,-89.54,-43.89,67.28,-39.53,2.81,421
13947,-89.68,77.67,-89.38,-43.56,67.26,-39.23,2.81,364
13962,-89.68,77.67,-89.38,-43.25,67.24,-38.95,2.82,422
13976,-89.46,77.62,-89.2,-43,67.21,-38.7,2.82,372
13990,-89.3,77.59,-89.03,-43,67.21,-38.7,2.825,439
14004,-89.21,77.57,-88.9,-42.81,67.19,-38.5,2.83,414
14019,-89.09,77.57,-88.73,-42.69,67.16,-38.37,2.83,383
14033,-89.09,77.57,-88.73,-42.63,67.14,-38.3,2.83,369
14047,-88.86,77.59,-88.48,-42.61,67.11,-38.28,2.835,393
14062,-88.65,77.63,-88.24,-42.61,67.11,-38.28,2.835,339
14076,-88.43,77.66,-88.04,-42.6,67.08,-38.31,2.84,311
14090,-88.14,77.7,-87.78,-42.61,67.05,-38.34,2.84,336
14105,-88.14,77.7,-87.78,-42.61,67.02,-38.37,2.84,328
14119,-87.86,77.73,-87.51,-42.65,66.99,-38.43,2.845,298
14133,-87.67,77.75,-87.35,-42.65,66.99,-38.43,2.84,297
14147,-87.61,77.75,-87.29,-42.66,66.96,-38.45,2.84,356
14162,-87.5,77.75,-87.17,-42.67,66.92,-38.47,2.845,328
14176,-87.5,77.75,-87.17,-42.66,66.88,-38.45,2.845,278
14190,-87.39,77.75,-87.04,-42.63,66.85,-38.39,2.845,291
14205,-87.25,77.76,-86.86,-42.63,66.85,-38.39,2.845,264
14219,-87.1,77.75,-86.65,-42.61,66.82,-38.33,2.845,262
14233,-87.02,77.74,-86.5,-42.61,66.79,-38.3,2.845,271
14248,-87,77.73,-86.39,-42.59,66.77,-38.23,2.845,270
14262,-87,77.73,-86.39,-42.54,66.75,-38.14,2.845,272
14276,-86.93,77.74,-86.24,-42.54,66.75,-38.14,2.845,301
14290,-86.88,77.74,-86.1,-42.52,66.73,-38.07,2.845,272
14305,-86.76,77.75,-85.94,-42.5,66.71,-38.03,2.84,258
14319,-86.66,77.76,-85.83,-42.47,66.7,-37.99,2.84,232
14334,-86.66,77.76,-85.83,-42.43,66.69,-37.96,2.845,249
14348,-86.59,77.77,-85.76,-42.42,66.68,-37.96,2.845,254
14362,-86.51,77.79,-85.67,-42.42,66.68,-37.96,2.849,274
14376,-86.56,77.8,-85.7,-42.41,66.68,-37.96,2.845,264
14391,-86.54,77.81,-85.69,-42.4,66.68,-37.94,2.849,268
14405,-86.54,77.81,-85.69,-42.4,66.68,-37.94,2.845,252
14419,-86.6,77.82,-85.74,-42.4,66.69,-37.95,2.845,248
14434,-86.71,77.82,-85.84,-42.4,66.69,-37.95,2.845,277
14448,-86.84,77.82,-85.95,-42.42,66.69,-37.98,2.845,296
14462,-86.86,77.83,-85.94,-42.44,66.71,-37.99,2.845,274
14477,-86.86,77.83,-85.94,-42.47,66.72,-38.01,2.845,271
14491,-86.92,77.83,-85.98,-42.5,66.73,-38.06,2.845,313
14505,-86.98,77.83,-86,-42.5,66.73,-38.06,2.845,310
14519,-86.96,77.83,-85.98,-42.49,66.72,-38.13,2.845,338
14534,-86.93,77.83,-86,-42.47,66.73,-38.22,2.845,307
14548,-86.93,77.83,-86,-42.4,66.73,-38.35,2.845,278
14562,-86.73,77.84,-85.91,-42.28,66.7,-38.57,2.845,341
14577,-86.22,77.87,-85.65,-42.28,66.7,-38.57,2.845,307
14591,-85.32,77.92,-85.15,-42.07,66.59,-38.84,2.845,264
14605,-84.32,77.96,-84.68,-41.71,66.49,-39.11,2.849,234
14620,-83.88,78.05,-84.72,-41.33,66.44,-39.13,2.849,280
14634,-83.88,78.05,-84.72,-41.17,66.47,-39.22,2.849,281
14648,-83.88,78.15,-85.02,-41.17,66.47,-39.22,2.849,280
14662,-84.17,78.21,-85.46,-41.14,66.52,-39.37,2.849,273
14677,-84.38,78.26,-85.78,-41.16,66.57,-39.56,2.849,253
14692,-84.38,78.3,-85.9,-41.17,66.61,-39.77,2.849,293
14706,-84.38,78.3,-85.9,-41.16,66.62,-39.91,2.849,268
14720,-84.38,78.31,-86,-41.16,66.62,-39.91,2.849,369
14734,-84.34,78.32,-85.98,-41.14,66.61,-39.95,2.849,358
14749,-84.34,78.3,-85.94,-41.18,66.6,-39.97,2.854,356
14763,-84.48,78.28,-86.02,-41.24,66.59,-39.96,2.849,308
14778,-84.48,78.28,-86.02,-41.31,66.62,-40.02,2.854,302
14791,-84.66,78.27,-86.15,-41.31,66.62,-40.02,2.854,370
14805,-84.86,78.26,-86.34,-41.37,66.66,-40.11,2.849,345
14820,-84.95,78.26,-86.47,-41.38,66.71,-40.21,2.854,309
14835,-84.98,78.28,-86.59,-41.37,66.74,-40.3,2.854,311
14849,-84.98,78.28,-86.59,-41.36,66.78,-40.41,2.854,309
14863,-85,78.31,-86.73,-41.29,66.81,-40.51,2.854,331
14878,-85.01,78.34,-86.89,-41.29,66.81,-40.51,2.854,335
14892,-85.07,78.38,-87.12,-41.22,66.84,-40.59,2.854,307
14906,-85.19,78.43,-87.38,-41.16,66.87,-40.66,2.859,277
14921,-85.35,78.45,-87.61,-41.15,66.9,-40.71,2.849,306
14935,-85.35,78.45,-87.61,-41.22,66.92,-40.75,2.854,274
14949,-85.58,78.47,-87.82,-41.22,66.92,-40.75,2.854,245
14963,-85.9,78.47,-88.06,-41.34,66.95,-40.78,2.854,245
14978,-86.34,78.44,-88.38,-41.51,66.97,-40.86,2.854,312
14992,-86.73,78.4,-88.65,-41.68,66.98,-40.94,2.854,345
15007,-86.73,78.4,-88.65,-41.84,66.99,-41.02,2.854,349
15021,-87.05,78.36,-88.87,-41.84,66.99,-41.02,2.854,312
15035,-87.31,78.33,-89.04,-42.03,67.02,-41.12,2.859,293
15049,-87.67,78.29,-89.34,-42.16,67.04,-41.2,2.859,267
15064,-88.01,78.25,-89.66,-42.27,67.07,-41.28,2.854,247
15078,-88.01,78.25,-89.66,-42.36,67.09,-41.36,2.854,220
15092,-88.29,78.22,-89.93,-42.36,67.09,-41.36,2.854,253
15106,-88.58,78.2,-90.2,-42.45,67.11,-41.41,2.854,264
15121,-88.9,78.17,-90.49,-42.56,67.15,-41.45,2.854,310
15135,-89.24,78.14,-90.78,-42.71,67.17,-41.53,2.854,278
15150,-89.24,78.14,-90.78,-42.88,67.19,-41.66,2.859,273
15164,-89.48,78.1,-90.98,-42.88,67.19,-41.66,2.859,257
15178,-89.76,78.05,-91.22,-43.04,67.19,-41.81,2.859,335
15192,-90.09,78.02,-91.54,-43.19,67.2,-41.94,2.859,301
15207,-90.34,77.98,-91.77,-43.34,67.2,-42.08,2.854,257
15221,-90.34,77.98,-91.77,-43.51,67.22,-42.21,2.854,245
15235,-90.55,77.96,-91.99,-43.51,67.22,-42.21,2.854,245
15249,-90.76,77.95,-92.18,-43.63,67.25,-42.32,2.854,301
15264,-90.87,77.95,-92.32,-43.75,67.27,-42.46,2.854,274
15278,-90.98,77.95,-92.48,-43.82,67.29,-42.57,2.854,233
15293,-90.98,77.95,-92.48,-43.89,67.3,-42.66,2.854,231
15307,-91.07,77.96,-92.63,-43.89,67.3,-42.66,2.859,256
15321,-91.14,77.96,-92.73,-43.97,67.3,-42.74,2.854,238
15335,-91.31,77.95,-92.88,-44.07,67.32,-42.84,2.854,217
15350,-91.48,77.94,-93.06,-44.16,67.33,-42.94,2.859,224
15364,-91.63,77.92,-93.21,-44.25,67.35,-43.04,2.859,193
15379,-91.63,77.92,-93.21,-44.25,67.35,-43.04,2.854,240
15392,-91.75,77.9,-93.33,-44.32,67.36,-43.12,2.859,211
15407,-91.86,77.88,-93.42,-44.4,67.38,-43.19,2.859,206
15421,-92.02,77.85,-93.56,-44.47,67.39,-43.26,2.859,196
15436,-92.17,77.83,-93.67,-44.54,67.39,-43.33,2.854,217
15450,-92.17,77.83,-93.67,-44.54,67.39,-43.33,2.854,189
15463,-92.3,77.8,-93.79,-44.61,67.4,-43.39,2.854,200
15478,-92.38,77.78,-93.87,-44.67,67.41,-43.45,2.854,217
15492,-92.49,77.76,-93.98,-44.72,67.42,-43.5,2.854,237
15507,-92.56,77.74,-94.04,-44.76,67.43,-43.54,2.854,223
15522,-92.56,77.74,-94.04,-44.8,67.44,-43.58,2.854,193
15536,-92.67,77.73,-94.15,-44.8,67.44,-43.58,2.859,219
15593,-92.77,77.72,-94.26,-44.84,67.45,-43.63,2.859,247
15608,-92.9,77.71,-94.39,-44.87,67.47,-43.68,2.854,239
15623,-93.01,77.7,-94.51,-44.88,67.48,-43.71,2.854,225
15637,-93.13,77.69,-94.64,-44.9,67.5,-43.75,2.854,202
15651,-93.27,77.68,-94.78,-44.91,67.52,-43.77,2.854,225
15666,-93.37,77.68,-94.88,-44.91,67.54,-43.8,2.859,260
15679,-93.51,77.67,-95.02,-44.93,67.56,-43.83,2.859,236
15693,-93.69,77.67,-95.2,-44.96,67.58,-43.87,2.859,223
15708,-93.84,77.67,-95.36,-44.98,67.61,-43.91,2.859,229
15722,-93.97,77.68,-95.5,-44.99,67.63,-43.93,2.854,237
15736,-94.08,77.69,-95.63,-45,67.65,-43.97,2.854,282
15751,-94.16,77.71,-95.75,-45.02,67.67,-44.02,2.854,332
15765,-94.22,77.72,-95.84,-45.04,67.69,-44.07,2.859,324
15780,-94.31,77.72,-95.95,-45.06,67.7,-44.13,2.859,310
15794,-94.44,77.74,-96.11,-45.08,67.72,-44.17,2.854,261
15809,-94.57,77.75,-96.25,-45.11,67.74,-44.2,2.859,246
15823,-94.57,77.75,-96.25,-45.11,67.74,-44.2,2.859,262
15836,-94.67,77.75,-96.34,-45.14,67.76,-44.24,2.859,320
15851,-94.77,77.75,-96.42,-45.18,67.77,-44.28,2.859,323
15865,-94.9,77.75,-96.55,-45.23,67.79,-44.32,2.859,276
15879,-95.02,77.76,-96.66,-45.28,67.81,-44.36,2.859,249
15894,-95.02,77.76,-96.66,-45.28,67.81,-44.36,2.859,221
15907,-95.13,77.76,-96.77,-45.33,67.82,-44.41,2.859,285
15921,-95.31,77.77,-96.95,-45.36,67.83,-44.45,2.854,274
15936,-95.39,77.78,-97.06,-45.38,67.84,-44.48,2.854,230
15950,-95.49,77.79,-97.18,-45.42,67.86,-44.51,2.859,222
15965,-95.49,77.79,-97.18,-45.42,67.86,-44.51,2.859,297
15978,-95.58,77.79,-97.27,-45.45,67.86,-44.56,2.859,276
15992,-95.74,77.79,-97.42,-45.5,67.87,-44.6,2.859,298
16007,-95.87,77.78,-97.55,-45.53,67.89,-44.64,2.854,294
16021,-96.02,77.78,-97.69,-45.57,67.9,-44.66,2.854,276
16036,-96.02,77.78,-97.69,-45.57,67.9,-44.66,2.859,242
16049,-96.1,77.78,-97.76,-45.62,67.91,-44.68,2.854,239
16063,-96.22,77.78,-97.86,-45.68,67.93,-44.74,2.859,221
16078,-96.33,77.77,-97.96,-45.71,67.94,-44.78,2.859,249
16092,-96.46,77.77,-98.11,-45.76,67.95,-44.84,2.859,225
16107,-96.46,77.77,-98.11,-45.76,67.95,-44.84,2.859,215
16120,-96.61,77.77,-98.27,-45.81,67.95,-44.91,2.859,221
16134,-96.71,77.77,-98.4,-45.85,67.97,-44.96,2.859,193
16149,-96.82,77.77,-98.51,-45.87,67.99,-45.01,2.859,202
16163,-96.92,77.78,-98.63,-45.9,68.01,-45.04,2.859,207
16177,-96.92,77.78,-98.63,-45.9,68.01,-45.04,2.859,192
16191,-97.03,77.78,-98.74,-45.94,68.02,-45.09,2.859,193
16205,-97.15,77.77,-98.86,-45.98,68.03,-45.14,2.859,242
16220,-97.28,77.77,-98.99,-46.02,68.04,-45.19,2.859,299
16234,-97.4,77.77,-99.13,-46.05,68.06,-45.23,2.859,304
16248,-97.4,77.77,-99.13,-46.05,68.06,-45.23,2.854,302
16262,-97.55,77.77,-99.27,-46.08,68.07,-45.26,2.859,330
16276,-97.71,77.76,-99.43,-46.12,68.08,-45.29,2.859,304
16290,-97.84,77.76,-99.55,-46.16,68.09,-45.33,2.859,266
16305,-97.96,77.76,-99.67,-46.2,68.1,-45.36,2.854,272
16319,-97.96,77.76,-99.67,-46.2,68.1,-45.36,2.859,223
16333,-98.09,77.76,-99.8,-46.24,68.11,-45.4,2.859,276
16347,-98.24,77.75,-99.93,-46.29,68.12,-45.45,2.859,303
16361,-98.35,77.74,-100.06,-46.35,68.13,-45.51,2.854,269
16376,-98.48,77.74,-100.18,-46.39,68.15,-45.55,2.859,246
16390,-98.48,77.74,-100.18,-46.39,68.15,-45.55,2.854,233
16403,-98.6,77.74,-100.3,-46.44,68.16,-45.6,2.854,210
16418,-98.72,77.73,-100.42,-46.5,68.17,-45.65,2.859,255
16432,-98.84,77.73,-100.53,-46.56,68.19,-45.72,2.854,266
16447,-98.96,77.72,-100.65,-46.62,68.2,-45.79,2.859,249
16462,-99.08,77.71,-100.77,-46.62,68.2,-45.79,2.859,272
16476,-99.08,77.71,-100.77,-46.69,68.21,-45.85,2.854,253
16491,-99.21,77.71,-100.89,-46.75,68.23,-45.91,2.859,237
16506,-99.32,77.7,-101.02,-46.81,68.24,-45.98,2.859,248
16520,-99.46,77.69,-101.16,-46.86,68.25,-46.03,2.854,266
16535,-99.61,77.68,-101.33,-46.9,68.26,-46.08,2.859,280
16550,-99.61,77.68,-101.33,-46.9,68.26,-46.08,2.854,265
16564,-99.7,77.67,-101.42,-46.96,68.27,-46.13,2.859,240
16579,-99.84,77.66,-101.56,-46.99,68.28,-46.16,2.859,260
16593,-100.01,77.65,-101.73,-47.02,68.29,-46.18,2.859,239
16608,-100.18,77.65,-101.91,-47.04,68.29,-46.18,2.854,247
16623,-100.28,77.66,-102.02,-47.04,68.29,-46.18,2.859,235
16637,-100.28,77.66,-102.02,-47.07,68.29,-46.18,2.859,233
16651,-100.44,77.68,-102.18,-47.11,68.29,-46.19,2.859,273
16666,-100.57,77.68,-102.33,-47.15,68.29,-46.22,2.859,219
16681,-100.65,77.7,-102.44,-47.19,68.29,-46.26,2.859,249
16696,-100.68,77.72,-102.5,-47.23,68.3,-46.3,2.854,254
16711,-100.78,77.75,-102.61,-47.23,68.3,-46.3,2.859,244
16725,-100.78,77.75,-102.61,-47.28,68.31,-46.35,2.859,249
16739,-100.88,77.78,-102.71,-47.36,68.31,-46.42,2.854,222
16754,-100.96,77.81,-102.79,-47.43,68.31,-46.5,2.859,219
16769,-101.02,77.84,-102.87,-47.51,68.31,-46.58,2.859,195
16784,-101.06,77.86,-102.94,-47.58,68.3,-46.66,2.859,184
16799,-101.16,77.88,-103.06,-47.58,68.3,-46.66,2.854,221
16813,-101.16,77.88,-103.06,-47.64,68.31,-46.74,2.859,203
16827,-101.29,77.88,-103.21,-47.7,68.31,-46.82,2.854,237
16842,-101.42,77.87,-103.36,-47.76,68.31,-46.91,2.854,207
16857,-101.51,77.85,-103.47,-47.79,68.31,-46.97,2.854,189
16872,-101.62,77.84,-103.59,-47.79,68.31,-46.97,2.859,231
16886,-101.62,77.84,-103.59,-47.84,68.32,-47.05,2.859,221
16900,-101.72,77.82,-103.7,-47.88,68.33,-47.11,2.859,205
16915,-101.82,77.8,-103.79,-47.91,68.34,-47.17,2.854,194
16930,-101.91,77.78,-103.89,-47.94,68.34,-47.21,2.854,168
16945,-102.02,77.75,-103.99,-47.98,68.34,-47.26,2.854,173
16960,-102.07,77.74,-104.05,-47.98,68.34,-47.26,2.854,204
16974,-102.07,77.74,-104.05,-48.02,68.35,-47.33,2.854,216
16988,-102.17,77.72,-104.16,-48.05,68.34,-47.37,2.854,193
17003,-102.25,77.7,-104.25,-48.08,68.35,-47.42,2.854,165
17018,-102.32,77.69,-104.34,-48.1,68.36,-47.46,2.854,191
17033,-102.38,77.68,-104.43,-48.14,68.36,-47.52,2.859,214
17047,-102.47,77.67,-104.53,-48.14,68.36,-47.52,2.854,246
17062,-102.47,77.67,-104.53,-48.18,68.37,-47.58,2.859,221
17076,-102.53,77.65,-104.6,-48.22,68.37,-47.63,2.859,181
17091,-102.61,77.63,-104.68,-48.26,68.38,-47.67,2.854,196
17106,-102.71,77.61,-104.78,-48.3,68.39,-47.72,2.859,210
17120,-102.79,77.59,-104.85,-48.3,68.39,-47.72,2.854,190
17135,-102.79,77.59,-104.85,-48.36,68.39,-47.79,2.854,196
17149,-102.84,77.57,-104.89,-48.4,68.4,-47.84,2.854,204
17164,-102.91,77.54,-104.96,-48.42,68.4,-47.87,2.859,172
17179,-103.05,77.51,-105.08,-48.45,68.41,-47.89,2.854,207
17193,-103.13,77.5,-105.16,-48.48,68.42,-47.92,2.859,192
17208,-103.19,77.48,-105.23,-48.48,68.42,-47.92,2.859,221
17222,-103.19,77.48,-105.23,-48.5,68.42,-47.95,2.859,185
17237,-103.24,77.47,-105.27,-48.54,68.43,-48,2.859,192
17251,-103.31,77.45,-105.36,-48.57,68.44,-48.04,2.859,182
17266,-103.37,77.44,-105.42,-48.6,68.45,-48.07,2.859,171
17281,-103.43,77.42,-105.49,-48.6,68.45,-48.07,2.854,168
17295,-103.5,77.4,-105.56,-48.64,68.45,-48.1,2.854,177
17310,-103.5,77.4,-105.56,-48.67,68.47,-48.14,2.854,226
17324,-103.53,77.38,-105.59,-48.7,68.48,-48.19,2.854,218
17339,-103.59,77.35,-105.65,-48.72,68.48,-48.23,2.854,242
17354,-103.64,77.32,-105.7,-48.75,68.49,-48.27,2.859,211
17369,-103.71,77.29,-105.78,-48.75,68.49,-48.27,2.859,199
17383,-103.71,77.29,-105.78,-48.77,68.5,-48.31,2.859,200
17397,-103.78,77.26,-105.85,-48.79,68.51,-48.35,2.859,181
17412,-103.86,77.23,-105.94,-48.8,68.51,-48.35,2.859,237
17427,-103.94,77.21,-106.01,-48.81,68.53,-48.37,2.859,196
17442,-104,77.19,-106.07,-48.83,68.53,-48.4,2.859,200
17457,-104.07,77.17,-106.14,-48.83,68.53,-48.4,2.854,191
17471,-104.07,77.17,-106.14,-48.85,68.54,-48.42,2.859,190
17485,-104.15,77.16,-106.21,-48.87,68.55,-48.45,2.859,202
17500,-104.23,77.16,-106.29,-48.9,68.55,-48.49,2.859,193
17515,-104.32,77.15,-106.38,-48.95,68.57,-48.55,2.859,199
17530,-104.41,77.15,-106.48,-48.95,68.57,-48.55,2.859,237
17544,-104.49,77.15,-106.56,-48.96,68.57,-48.56,2.859,216
17559,-104.49,77.15,-106.56,-48.99,68.58,-48.59,2.859,236
17573,-104.56,77.15,-106.64,-49.02,68.58,-48.62,2.859,202
17588,-104.68,77.14,-106.76,-49.07,68.59,-48.68,2.859,207
17603,-104.81,77.13,-106.89,-49.1,68.6,-48.72,2.859,268
17618,-104.88,77.12,-106.96,-49.1,68.6,-48.72,2.859,255
17632,-104.93,77.12,-107,-49.14,68.6,-48.77,2.859,236
17647,-104.93,77.12,-107,-49.16,68.61,-48.8,2.859,211
17661,-105,77.11,-107.07,-49.19,68.62,-48.84,2.859,195
17676,-105.08,77.1,-107.17,-49.24,68.64,-48.9,2.859,198
17691,-105.18,77.1,-107.27,-49.28,68.65,-48.95,2.859,203
17705,-105.26,77.09,-107.35,-49.28,68.65,-48.95,2.859,219
17720,-105.26,77.09,-107.35,-49.33,68.66,-49.01,2.859,235
17734,-105.37,77.08,-107.46,-49.36,68.67,-49.07,2.859,226
17749,-105.44,77.08,-107.54,-49.39,68.69,-49.11,2.859,186
17763,-105.54,77.07,-107.66,-49.41,68.7,-49.15,2.859,183
17778,-105.63,77.07,-107.76,-49.41,68.7,-49.15,2.859,197
17793,-105.71,77.06,-107.84,-49.44,68.72,-49.19,2.864,225
17807,-105.71,77.06,-107.84,-49.49,68.73,-49.23,2.859,230
17822,-105.79,77.05,-107.92,-49.53,68.74,-49.28,2.859,218
17836,-105.86,77.04,-107.98,-49.57,68.75,-49.33,2.859,235
17851,-105.95,77.03,-108.09,-49.59,68.76,-49.37,2.859,236
17866,-106.04,77.03,-108.19,-49.59,68.76,-49.37,2.859,208
17880,-106.11,77.03,-108.27,-49.62,68.78,-49.41,2.859,180
17895,-106.11,77.03,-108.27,-49.65,68.78,-49.46,2.854,191
17909,-106.18,77.02,-108.33,-49.67,68.79,-49.48,2.859,189
17924,-106.24,77.02,-108.4,-49.71,68.8,-49.52,2.859,196
17939,-106.28,77.01,-108.44,-49.71,68.8,-49.52,2.859,206
17953,-106.32,77.01,-108.48,-49.73,68.81,-49.55,2.859,207
17968,-106.41,77,-108.57,-49.76,68.83,-49.58,2.859,196
17983,-106.41,77,-108.57,-49.78,68.84,-49.61,2.859,178
17997,-106.46,77,-108.62,-49.82,68.84,-49.65,2.859,223
18012,-106.57,76.98,-108.73,-49.84,68.85,-49.68,2.859,213
18027,-106.67,76.97,-108.83,-49.84,68.85,-49.68,2.859,220
18041,-106.72,76.97,-108.89,-49.87,68.85,-49.72,2.859,217
18056,-106.72,76.97,-108.89,-49.9,68.86,-49.74,2.859,209
18070,-106.77,76.97,-108.94,-49.92,68.87,-49.77,2.859,193
18085,-106.88,76.96,-109.05,-49.95,68.87,-49.81,2.859,205
18100,-106.94,76.96,-109.12,-49.99,68.88,-49.84,2.864,191
18115,-107,76.95,-109.18,-49.99,68.88,-49.84,2.859,194
18129,-107.09,76.95,-109.27,-50.01,68.88,-49.86,2.859,209
18144,-107.09,76.95,-109.27,-50.04,68.89,-49.89,2.859,207
18158,-107.15,76.96,-109.36,-50.06,68.9,-49.92,2.859,186
18173,-107.18,76.96,-109.39,-50.09,68.91,-49.96,2.859,195
18187,-107.22,76.96,-109.44,-50.09,68.91,-49.96,2.859,214
18202,-107.29,76.96,-109.52,-50.12,68.92,-50.01,2.859,246
18217,-107.38,76.95,-109.62,-50.15,68.92,-50.05,2.859,210
18231,-107.38,76.95,-109.62,-50.16,68.92,-50.06,2.859,230
18246,-107.41,76.95,-109.65,-50.17,68.93,-50.08,2.859,201
18260,-107.48,76.95,-109.74,-50.19,68.93,-50.12,2.854,195
18275,-107.57,76.95,-109.83,-50.19,68.93,-50.12,2.864,179
18289,-107.62,76.95,-109.89,-50.19,68.93,-50.13,2.859,190
18304,-107.62,76.95,-109.89,-50.19,68.94,-50.13,2.859,196
18319,-107.69,76.95,-109.96,-50.19,68.94,-50.12,2.859,194
18365,-107.72,76.96,-110,-50.2,68.94,-50.13,2.859,233
18379,-107.78,76.96,-110.05,-50.21,68.94,-50.16,2.859,211
18394,-107.84,76.94,-110.12,-50.2,68.93,-50.16,2.859,212
18409,-107.92,76.94,-110.2,-50.2,68.94,-50.16,2.859,193
18423,-107.96,76.94,-110.25,-50.2,68.94,-50.17,2.859,188
18438,-108.01,76.93,-110.29,-50.2,68.94,-50.15,2.859,236
18453,-108.05,76.94,-110.34,-50.21,68.95,-50.15,2.859,204
18468,-108.11,76.94,-110.38,-50.22,68.95,-50.14,2.859,211
18482,-108.17,76.95,-110.44,-50.25,68.96,-50.16,2.859,194
18497,-108.21,76.95,-110.48,-50.27,68.96,-50.18,2.859,234
18512,-108.26,76.97,-110.54,-50.28,68.97,-50.19,2.864,233
18527,-108.32,76.98,-110.61,-50.3,68.97,-50.21,2.859,264
18541,-108.35,77,-110.65,-50.3,68.97,-50.21,2.859,231
18555,-108.35,77.01,-110.68,-50.35,68.97,-50.25,2.859,217
18570,-108.35,77.01,-110.68,-50.39,68.97,-50.3,2.864,207
18584,-108.39,77.02,-110.72,-50.44,68.96,-50.36,2.859,228
18599,-108.42,77.01,-110.75,-50.51,68.96,-50.43,2.859,201
18614,-108.48,76.99,-110.81,-50.51,68.96,-50.43,2.864,196
18628,-108.5,76.96,-110.84,-50.56,68.96,-50.5,2.854,200
18643,-108.56,76.94,-110.9,-50.61,68.96,-50.56,2.859,217
18657,-108.56,76.94,-110.9,-50.66,68.96,-50.62,2.859,230
18671,-108.63,76.92,-110.96,-50.7,68.97,-50.68,2.859,218
18686,-108.71,76.9,-111.04,-50.75,68.97,-50.75,2.859,240
18701,-108.78,76.88,-111.11,-50.75,68.97,-50.75,2.864,216
18715,-108.85,76.87,-111.19,-50.79,68.98,-50.8,2.859,190
18730,-108.93,76.85,-111.27,-50.84,68.99,-50.86,2.859,235
18744,-108.93,76.85,-111.27,-50.89,69,-50.92,2.859,242
18759,-108.99,76.85,-111.34,-50.93,69,-50.98,2.864,214
18773,-109.04,76.83,-111.41,-50.93,69,-50.98,2.859,214
18788,-109.09,76.83,-111.48,-50.96,69.01,-51.03,2.864,200
18802,-109.17,76.82,-111.58,-51,69.02,-51.09,2.859,186
18817,-109.17,76.82,-111.58,-51.03,69.03,-51.14,2.859,206
18831,-109.25,76.82,-111.66,-51.06,69.03,-51.18,2.859,226
18846,-109.31,76.81,-111.72,-51.06,69.03,-51.18,2.859,203
18860,-109.37,76.8,-111.79,-51.09,69.04,-51.23,2.859,233
18875,-109.42,76.79,-111.84,-51.13,69.05,-51.27,2.864,228
18889,-109.45,76.78,-111.85,-51.17,69.05,-51.32,2.859,210
18904,-109.45,76.78,-111.85,-51.21,69.05,-51.35,2.859,224
18918,-109.5,76.76,-111.89,-51.23,69.06,-51.37,2.859,248
18933,-109.6,76.75,-111.98,-51.23,69.06,-51.37,2.859,230
18947,-109.7,76.74,-112.07,-51.26,69.07,-51.41,2.859,217
18962,-109.75,76.75,-112.12,-51.29,69.08,-51.42,2.859,189
18976,-109.75,76.75,-112.12,-51.31,69.08,-51.42,2.859,190
18991,-109.74,76.76,-112.1,-51.35,69.09,-51.45,2.854,202
19005,-109.77,76.77,-112.11,-51.35,69.09,-51.45,2.859,216
19019,-109.81,76.77,-112.15,-51.36,69.09,-51.45,2.859,210
19034,-109.85,76.78,-112.2,-51.37,69.1,-51.46,2.859,182
19049,-109.88,76.79,-112.24,-51.38,69.11,-51.47,2.859,192
19064,-109.88,76.79,-112.24,-51.37,69.11,-51.49,2.859,181
19078,-109.93,76.79,-112.3,-51.34,69.11,-51.48,2.859,272
19092,-109.97,76.79,-112.37,-51.34,69.11,-51.48,2.859,237
19107,-109.99,76.81,-112.41,-51.3,69.11,-51.45,2.859,236
19121,-110.04,76.81,-112.48,-51.29,69.12,-51.46,2.859,217
19136,-110.04,76.81,-112.48,-51.28,69.13,-51.47,2.859,209
19150,-110.08,76.81,-112.52,-51.29,69.14,-51.5,2.859,227
19165,-110.12,76.81,-112.58,-51.29,69.14,-51.5,2.864,226
19179,-110.14,76.81,-112.6,-51.3,69.15,-51.55,2.859,206
19194,-110.2,76.81,-112.67,-51.31,69.16,-51.57,2.859,190
19208,-110.25,76.81,-112.73,-51.31,69.17,-51.6,2.859,236
19223,-110.25,76.81,-112.73,-51.34,69.18,-51.65,2.859,222
19237,-110.26,76.81,-112.76,-51.34,69.18,-51.65,2.859,231
19251,-110.32,76.81,-112.83,-51.35,69.2,-51.69,2.859,217
19266,-110.37,76.8,-112.88,-51.37,69.2,-51.73,2.859,192
19281,-110.38,76.8,-112.89,-51.39,69.21,-51.78,2.859,222
19296,-110.38,76.8,-112.89,-51.4,69.22,-51.81,2.859,211
19310,-110.41,76.79,-112.93,-51.42,69.23,-51.84,2.859,222
19325,-110.43,76.79,-112.95,-51.42,69.23,-51.84,2.859,215
19339,-110.48,76.78,-112.98,-51.44,69.24,-51.87,2.859,190
19354,-110.51,76.77,-113,-51.47,69.24,-51.91,2.859,170
19369,-110.59,76.75,-113.08,-51.48,69.24,-51.93,2.859,151
19384,-110.59,76.75,-113.08,-51.49,69.24,-51.94,2.859,241
19398,-110.63,76.76,-113.11,-51.51,69.25,-51.97,2.859,246
19413,-110.68,76.75,-113.17,-51.51,69.25,-51.97,2.864,213
19427,-110.71,76.75,-113.19,-51.54,69.25,-52.01,2.859,203
19442,-110.75,76.74,-113.23,-51.57,69.25,-52.04,2.859,168
19457,-110.8,76.73,-113.27,-51.58,69.25,-52.06,2.859,187
19472,-110.8,76.73,-113.27,-51.6,69.25,-52.08,2.854,270
19486,-110.86,76.72,-113.32,-51.6,69.25,-52.08,2.859,227
19500,-110.93,76.72,-113.39,-51.62,69.25,-52.11,2.859,200
19515,-110.96,76.72,-113.42,-51.66,69.25,-52.15,2.859,201
19530,-110.99,76.71,-113.45,-51.7,69.26,-52.19,2.859,276
19545,-110.99,76.71,-113.45,-51.74,69.25,-52.22,2.859,245
19559,-111.05,76.7,-113.49,-51.75,69.25,-52.24,2.859,231
19574,-111.09,76.69,-113.53,-51.75,69.25,-52.24,2.859,221
19588,-111.11,76.69,-113.54,-51.78,69.25,-52.26,2.859,194
19603,-111.14,76.68,-113.57,-51.82,69.25,-52.29,2.859,199
19618,-111.15,76.67,-113.57,-51.86,69.25,-52.33,2.859,197
19632,-111.15,76.67,-113.57,-51.9,69.25,-52.38,2.859,177
19647,-111.19,76.66,-113.63,-51.93,69.25,-52.42,2.859,192
19661,-111.23,76.65,-113.66,-51.93,69.25,-52.42,2.864,192
19676,-111.3,76.64,-113.74,-51.98,69.26,-52.48,2.859,181
19691,-111.34,76.63,-113.79,-52,69.26,-52.51,2.854,213
19705,-111.39,76.63,-113.84,-52.02,69.26,-52.53,2.859,194
19720,-111.39,76.63,-113.84,-52.04,69.27,-52.54,2.859,192
19734,-111.44,76.63,-113.89,-52.04,69.27,-52.54,2.859,177
19749,-111.53,76.61,-113.98,-52.06,69.27,-52.58,2.859,176
19764,-111.61,76.6,-114.07,-52.08,69.27,-52.6,2.859,167
19778,-111.62,76.6,-114.08,-52.1,69.27,-52.62,2.859,190
19793,-111.67,76.59,-114.14,-52.13,69.28,-52.66,2.859,187
19808,-111.67,76.59,-114.14,-52.17,69.28,-52.72,2.859,179
19822,-111.74,76.59,-114.22,-52.17,69.28,-52.72,2.859,173
19837,-111.81,76.57,-114.31,-52.21,69.29,-52.79,2.859,207
19851,-111.86,76.56,-114.38,-52.24,69.29,-52.83,2.859,226
19866,-111.91,76.55,-114.43,-52.28,69.29,-52.89,2.859,246
19881,-111.91,76.55,-114.43,-52.33,69.3,-52.94,2.859,253
19895,-111.97,76.55,-114.49,-52.4,69.3,-53.01,2.859,222
19910,-112.02,76.55,-114.54,-52.4,69.3,-53.01,2.859,247
19924,-112.07,76.53,-114.59,-52.45,69.3,-53.08,2.859,242
19939,-112.14,76.52,-114.64,-52.51,69.31,-53.14,2.859,247
19954,-112.17,76.5,-114.66,-52.58,69.31,-53.2,2.859,245
19969,-112.17,76.5,-114.66,-52.63,69.32,-53.25,2.859,218
19983,-112.22,76.49,-114.71,-52.63,69.32,-53.25,2.859,194
19997,-112.26,76.48,-114.74,-52.67,69.32,-53.29,2.864,199
20012,-112.3,76.47,-114.79,-52.69,69.32,-53.32,2.864,212
20027,-112.34,76.46,-114.84,-52.72,69.32,-53.36,2.859,248
20042,-112.42,76.45,-114.92,-52.74,69.32,-53.39,2.859,223
20057,-112.42,76.45,-114.92,-52.76,69.32,-53.42,2.864,213
20071,-112.47,76.44,-114.97,-52.76,69.32,-53.42,2.864,202
20085,-112.5,76.43,-115,-52.78,69.32,-53.44,2.859,193
20100,-112.55,76.43,-115.05,-52.83,69.32,-53.49,2.859,182
20115,-112.59,76.42,-115.1,-52.86,69.33,-53.53,2.859,199
20129,-112.63,76.41,-115.14,-52.9,69.33,-53.58,2.859,199
20144,-112.63,76.41,-115.14,-52.9,69.33,-53.58,2.859,193
20158,-112.7,76.4,-115.21,-52.92,69.34,-53.61,2.859,200
20173,-112.7,76.39,-115.23,-52.96,69.34,-53.66,2.859,200
20188,-112.76,76.39,-115.3,-52.98,69.34,-53.7,2.864,190
20203,-112.8,76.38,-115.36,-53,69.34,-53.74,2.859,180
20218,-112.8,76.38,-115.36,-53.01,69.35,-53.76,2.859,182
20232,-112.83,76.37,-115.41,-53.01,69.35,-53.76,2.859,188
20246,-112.84,76.37,-115.41,-53.04,69.35,-53.8,2.859,188
20261,-112.88,76.36,-115.45,-53.07,69.36,-53.83,2.859,215
20276,-112.89,76.36,-115.45,-53.11,69.36,-53.88,2.854,218
20291,-112.91,76.36,-115.48,-53.13,69.36,-53.91,2.859,207
20306,-112.91,76.36,-115.48,-53.15,69.36,-53.94,2.854,210
20320,-112.94,76.35,-115.51,-53.15,69.36,-53.94,2.859,236
20334,-112.97,76.34,-115.56,-53.15,69.36,-53.95,2.859,264
20349,-113,76.34,-115.59,-53.15,69.36,-53.96,2.859,240
20364,-113.01,76.34,-115.61,-53.16,69.35,-53.97,2.859,215
20378,-113.03,76.33,-115.64,-53.18,69.35,-54,2.859,194
20393,-113.03,76.33,-115.64,-53.18,69.35,-54,2.859,193
20407,-113.07,76.33,-115.66,-53.19,69.34,-54.02,2.859,215
20422,-113.08,76.32,-115.68,-53.2,69.34,-54.03,2.864,222
20436,-113.11,76.3,-115.71,-53.21,69.34,-54.06,2.859,193
20451,-113.12,76.29,-115.73,-53.22,69.34,-54.09,2.859,262
20466,-113.15,76.28,-115.78,-53.24,69.34,-54.14,2.859,220
20481,-113.15,76.28,-115.78,-53.24,69.34,-54.14,2.859,221
20495,-113.17,76.27,-115.82,-53.24,69.35,-54.17,2.859,197
20509,-113.21,76.27,-115.87,-53.26,69.35,-54.2,2.859,205
20531,-113.19,76.27,-115.86,-53.27,69.35,-54.23,2.859,196
20547,-113.21,76.26,-115.89,-53.29,69.35,-54.26,2.859,173
20562,-113.25,76.26,-115.93,-53.31,69.34,-54.28,2.864,177
20578,-113.26,76.25,-115.94,-53.32,69.35,-54.3,2.859,197
20594,-113.27,76.24,-115.95,-53.35,69.35,-54.34,2.859,182
20610,-113.32,76.24,-116,-53.36,69.35,-54.37,2.864,181
20625,-113.34,76.24,-116.02,-53.36,69.35,-54.38,2.859,174
20641,-113.34,76.24,-116.02,-53.36,69.35,-54.38,2.859,164
20656,-113.36,76.23,-116.04,-53.38,69.35,-54.4,2.859,209
20671,-113.38,76.23,-116.05,-53.39,69.35,-54.41,2.859,213
20686,-113.42,76.22,-116.09,-53.41,69.35,-54.43,2.859,199
20700,-113.46,76.22,-116.12,-53.43,69.35,-54.45,2.859,190
20715,-113.47,76.21,-116.13,-53.45,69.35,-54.47,2.859,194
20729,-113.47,76.21,-116.13,-53.45,69.35,-54.47,2.859,204
20743,-113.48,76.21,-116.14,-53.47,69.35,-54.49,2.859,186
20757,-113.5,76.2,-116.16,-53.49,69.35,-54.52,2.859,174
20772,-113.53,76.18,-116.18,-53.51,69.35,-54.53,2.854,206
20786,-113.54,76.18,-116.2,-53.52,69.35,-54.55,2.854,247
20801,-113.54,76.18,-116.2,-53.52,69.35,-54.55,2.859,239
20814,-113.59,76.18,-116.26,-53.53,69.36,-54.57,2.859,222
20829,-113.64,76.17,-116.3,-53.55,69.37,-54.59,2.859,176
20843,-113.66,76.16,-116.31,-53.58,69.37,-54.62,2.859,163
20858,-113.69,76.16,-116.35,-53.59,69.37,-54.64,2.859,192
20872,-113.69,76.16,-116.35,-53.59,69.37,-54.64,2.859,179
20886,-113.73,76.14,-116.38,-53.6,69.37,-54.65,2.859,181
20900,-113.76,76.14,-116.41,-53.62,69.38,-54.66,2.854,184
20915,-113.79,76.14,-116.43,-53.63,69.39,-54.67,2.859,173
20929,-113.82,76.13,-116.47,-53.66,69.39,-54.71,2.859,157
20944,-113.82,76.13,-116.47,-53.66,69.39,-54.71,2.859,198
20957,-113.86,76.12,-116.51,-53.67,69.39,-54.73,2.859,205
20972,-113.9,76.11,-116.55,-53.7,69.39,-54.76,2.859,210
20986,-113.93,76.11,-116.59,-53.69,69.4,-54.77,2.859,198
21001,-113.97,76.1,-116.64,-53.69,69.4,-54.79,2.859,212
21015,-114.02,76.1,-116.69,-53.7,69.4,-54.81,2.859,216
21030,-114.02,76.1,-116.69,-53.7,69.4,-54.81,2.859,237
21043,-114.08,76.1,-116.74,-53.7,69.41,-54.83,2.854,234
21058,-114.14,76.09,-116.8,-53.72,69.42,-54.86,2.859,207
21072,-114.16,76.09,-116.83,-53.75,69.42,-54.89,2.859,180
21087,-114.2,76.08,-116.87,-53.78,69.42,-54.93,2.859,176
21131,-114.26,76.07,-116.94,-53.83,69.43,-54.98,2.859,213
21146,-114.3,76.06,-116.97,-53.86,69.43,-55.02,2.859,198
21161,-114.35,76.05,-117.02,-53.9,69.43,-55.07,2.864,194
21175,-114.37,76.04,-117.04,-53.93,69.44,-55.11,2.864,198
21189,-114.42,76.03,-117.1,-53.98,69.44,-55.17,2.859,210
21204,-114.47,76.02,-117.14,-54.02,69.44,-55.22,2.859,202
21218,-114.52,76.01,-117.18,-54.06,69.44,-55.27,2.859,223
21233,-114.58,76,-117.24,-54.09,69.45,-55.3,2.859,199
21247,-114.62,76,-117.28,-54.12,69.45,-55.34,2.859,215
21261,-114.62,76,-117.28,-54.12,69.45,-55.34,2.859,205
21275,-114.69,75.99,-117.35,-54.14,69.46,-55.36,2.859,185
21289,-114.74,75.98,-117.4,-54.16,69.46,-55.39,2.859,224
21304,-114.78,75.98,-117.45,-54.19,69.47,-55.43,2.859,241
21318,-114.81,75.97,-117.49,-54.21,69.48,-55.47,2.859,270
21332,-114.81,75.97,-117.49,-54.21,69.48,-55.47,2.859,255
21346,-114.85,75.97,-117.55,-54.22,69.49,-55.51,2.859,236
21360,-114.87,75.97,-117.6,-54.23,69.5,-55.54,2.859,220
21374,-114.91,75.97,-117.65,-54.24,69.51,-55.56,2.859,218
21389,-114.96,75.96,-117.71,-54.24,69.52,-55.59,2.859,238
21403,-114.96,75.96,-117.71,-54.24,69.52,-55.59,2.864,211
21417,-115,75.96,-117.75,-54.26,69.53,-55.62,2.864,199
21431,-115.05,75.96,-117.81,-54.27,69.54,-55.64,2.859,209
21445,-115.1,75.96,-117.86,-54.28,69.55,-55.66,2.859,246
21460,-115.14,75.96,-117.91,-54.28,69.55,-55.66,2.864,232
21474,-115.14,75.96,-117.91,-54.3,69.56,-55.71,2.859,209
21487,-115.18,75.96,-117.95,-54.31,69.57,-55.75,2.859,214
21502,-115.22,75.96,-118.01,-54.32,69.58,-55.77,2.864,209
21516,-115.23,75.96,-118.04,-54.31,69.58,-55.79,2.859,195
21531,-115.26,75.96,-118.09,-54.31,69.58,-55.79,2.859,174
21545,-115.26,75.96,-118.09,-54.29,69.59,-55.78,2.864,179
21558,-115.28,75.97,-118.13,-54.29,69.6,-55.8,2.859,195
21573,-115.29,75.98,-118.16,-54.28,69.6,-55.8,2.859,197
21587,-115.32,75.98,-118.19,-54.26,69.6,-55.79,2.859,225
21602,-115.38,75.97,-118.23,-54.26,69.6,-55.79,2.859,212
21616,-115.38,75.97,-118.23,-54.25,69.6,-55.78,2.859,185
21629,-115.4,75.97,-118.24,-54.25,69.6,-55.79,2.859,165
21644,-115.42,75.97,-118.26,-54.23,69.6,-55.78,2.859,169
21658,-115.43,75.97,-118.28,-54.22,69.6,-55.78,2.859,193
21673,-115.42,75.98,-118.27,-54.22,69.6,-55.78,2.859,203
21686,-115.42,75.98,-118.27,-54.22,69.61,-55.79,2.859,201
21700,-115.42,75.98,-118.27,-54.22,69.61,-55.8,2.859,196
21715,-115.45,75.98,-118.29,-54.23,69.61,-55.8,2.859,168
21729,-115.5,75.97,-118.32,-54.23,69.61,-55.81,2.859,190
21743,-115.52,75.97,-118.33,-54.23,69.61,-55.81,2.859,197
21757,-115.52,75.97,-118.33,-54.24,69.61,-55.81,2.859,211
21771,-115.52,75.96,-118.32,-54.24,69.62,-55.82,2.859,240
21786,-115.55,75.96,-118.33,-54.26,69.61,-55.83,2.864,229
21800,-115.55,75.96,-118.32,-54.26,69.62,-55.84,2.859,213
21814,-115.57,75.96,-118.33,-54.26,69.62,-55.84,2.859,211
21828,-115.57,75.96,-118.33,-54.25,69.62,-55.84,2.859,210
21842,-115.57,75.96,-118.34,-54.24,69.62,-55.84,2.859,221
21856,-115.62,75.96,-118.39,-54.23,69.63,-55.85,2.859,208
21871,-115.62,75.96,-118.4,-54.22,69.62,-55.85,2.864,194
21885,-115.63,75.96,-118.4,-54.22,69.62,-55.85,2.859,204
21899,-115.63,75.96,-118.4,-54.23,69.63,-55.85,2.859,209
21913,-115.64,75.96,-118.41,-54.23,69.63,-55.86,2.859,237
21927,-115.68,75.96,-118.45,-54.24,69.63,-55.86,2.864,277
21942,-115.69,75.96,-118.45,-54.26,69.63,-55.89,2.859,241
21956,-115.73,75.96,-118.49,-54.26,69.63,-55.89,2.859,219
21970,-115.73,75.96,-118.49,-54.29,69.63,-55.92,2.859,227
21984,-115.74,75.95,-118.5,-54.31,69.65,-55.94,2.859,253
21998,-115.79,75.94,-118.55,-54.32,69.65,-55.97,2.859,232
22013,-115.84,75.94,-118.61,-54.33,69.66,-56,2.859,246
22028,-115.87,75.94,-118.65,-54.33,69.66,-56,2.859,219
22041,-115.87,75.94,-118.65,-54.34,69.67,-56.03,2.859,213
22055,-115.9,75.94,-118.7,-54.34,69.68,-56.05,2.859,206
22070,-115.95,75.94,-118.76,-54.35,69.68,-56.07,2.859,213
22084,-115.99,75.95,-118.81,-54.35,69.69,-56.09,2.864,186
22099,-116.04,75.96,-118.86,-54.35,69.69,-56.09,2.864,176
22113,-116.04,75.96,-118.86,-54.36,69.7,-56.11,2.864,232
22127,-116.07,75.96,-118.91,-54.37,69.71,-56.14,2.859,223
22141,-116.11,75.96,-118.94,-54.36,69.72,-56.15,2.859,268
22156,-116.17,75.96,-119.02,-54.36,69.74,-56.16,2.859,255
22170,-116.2,75.97,-119.06,-54.36,69.74,-56.16,2.864,233
22184,-116.24,75.97,-119.1,-54.35,69.75,-56.16,2.864,224
22199,-116.24,75.97,-119.1,-54.33,69.76,-56.15,2.859,210
22213,-116.28,75.97,-119.15,-54.33,69.77,-56.17,2.864,228
22228,-116.34,75.98,-119.22,-54.33,69.78,-56.18,2.859,273
22242,-116.39,75.97,-119.27,-54.33,69.78,-56.18,2.859,243
22256,-116.43,75.97,-119.31,-54.33,69.78,-56.19,2.859,247
22271,-116.43,75.97,-119.31,-54.33,69.79,-56.19,2.859,222
22285,-116.48,75.97,-119.36,-54.34,69.79,-56.21,2.859,218
22299,-116.53,75.97,-119.42,-54.35,69.81,-56.24,2.859,215
22314,-116.57,75.97,-119.48,-54.35,69.82,-56.27,2.859,200
22328,-116.61,75.98,-119.53,-54.35,69.82,-56.27,2.859,220
22342,-116.61,75.98,-119.53,-54.38,69.83,-56.31,2.859,248
22356,-116.66,75.98,-119.59,-54.39,69.83,-56.34,2.859,300
22371,-116.7,75.98,-119.63,-54.4,69.85,-56.37,2.864,257
22385,-116.74,75.97,-119.67,-54.42,69.85,-56.39,2.859,255
22400,-116.78,75.97,-119.71,-54.42,69.85,-56.39,2.859,237
22414,-116.78,75.97,-119.71,-54.44,69.86,-56.41,2.859,241
22428,-116.83,75.97,-119.76,-54.44,69.87,-56.42,2.859,222
22442,-116.9,75.97,-119.83,-54.45,69.88,-56.44,2.859,229
22457,-116.96,75.96,-119.88,-54.45,69.88,-56.44,2.859,225
22471,-117.03,75.95,-119.94,-54.45,69.88,-56.44,2.864,240
22485,-117.03,75.95,-119.94,-54.47,69.89,-56.46,2.859,232
22499,-117.06,75.95,-119.97,-54.49,69.9,-56.47,2.864,251
22514,-117.12,75.95,-120.01,-54.51,69.9,-56.5,2.859,221
22528,-117.16,75.95,-120.05,-54.52,69.9,-56.51,2.859,207
22543,-117.2,75.94,-120.1,-54.52,69.9,-56.51,2.864,237
22557,-117.24,75.94,-120.14,-54.53,69.91,-56.52,2.864,228
22571,-117.24,75.94,-120.14,-54.54,69.92,-56.54,2.859,251
22585,-117.3,75.94,-120.2,-54.57,69.93,-56.57,2.864,235
22600,-117.36,75.94,-120.26,-54.58,69.94,-56.6,2.859,245
22614,-117.4,75.93,-120.31,-54.58,69.94,-56.6,2.859,263
22628,-117.45,75.94,-120.37,-54.58,69.95,-56.62,2.859,272
22643,-117.45,75.94,-120.37,-54.59,69.96,-56.65,2.859,250
22657,-117.51,75.94,-120.44,-54.6,69.97,-56.67,2.859,240
22671,-117.54,75.94,-120.48,-54.6,69.98,-56.68,2.859,225
22686,-117.58,75.94,-120.52,-54.6,69.98,-56.68,2.859,239
22700,-117.61,75.95,-120.55,-54.62,69.98,-56.7,2.864,253
22714,-117.61,75.95,-120.55,-54.62,69.99,-56.72,2.859,268
22728,-117.64,75.95,-120.61,-54.62,69.99,-56.73,2.859,261
22743,-117.69,75.95,-120.67,-54.61,70,-56.74,2.859,289
22757,-117.74,75.95,-120.74,-54.61,70,-56.74,2.864,255
22771,-117.78,75.96,-120.8,-54.61,70,-56.76,2.859,297
22786,-117.78,75.96,-120.8,-54.59,70,-56.78,2.854,292
22799,-117.81,75.97,-120.86,-54.59,70.01,-56.8,2.859,278
22814,-117.82,75.97,-120.9,-54.58,70.02,-56.81,2.859,285
22829,-117.86,75.97,-120.95,-54.58,70.02,-56.81,2.859,249
22842,-117.87,75.97,-120.97,-54.59,70.02,-56.83,2.859,288
22857,-117.87,75.97,-120.97,-54.6,70.03,-56.87,2.859,292
22871,-117.92,75.97,-121.03,-54.63,70.04,-56.91,2.859,250
22885,-117.95,75.97,-121.07,-54.65,70.05,-56.96,2.859,200
22900,-118,75.97,-121.14,-54.65,70.05,-56.96,2.859,224
22914,-118.05,75.97,-121.21,-54.67,70.06,-56.99,2.864,239
22929,-118.06,75.97,-121.24,-54.68,70.06,-57.02,2.859,204
22943,-118.06,75.97,-121.24,-54.69,70.07,-57.05,2.864,223
22957,-118.09,75.96,-121.28,-54.7,70.08,-57.07,2.864,245
22972,-118.12,75.96,-121.32,-54.7,70.08,-57.08,2.859,241
22986,-118.17,75.96,-121.38,-54.7,70.08,-57.08,2.859,291
23000,-118.21,75.95,-121.43,-54.71,70.09,-57.09,2.859,273
23015,-118.21,75.95,-121.43,-54.74,70.09,-57.12,2.864,295
23029,-118.26,75.95,-121.47,-54.74,70.1,-57.12,2.864,264
23043,-118.29,75.95,-121.5,-54.74,70.1,-57.12,2.859,231
23058,-118.3,75.95,-121.5,-54.74,70.1,-57.12,2.859,237
23072,-118.33,75.95,-121.53,-54.75,70.1,-57.13,2.864,256
23086,-118.33,75.95,-121.53,-54.76,70.1,-57.14,2.859,246
23100,-118.35,75.94,-121.55,-54.78,70.1,-57.17,2.859,245
23115,-118.34,75.94,-121.55,-54.79,70.11,-57.2,2.859,228
23129,-118.35,75.93,-121.56,-54.79,70.11,-57.2,2.859,282
23143,-118.34,75.93,-121.56,-54.81,70.11,-57.23,2.859,276
23158,-118.34,75.93,-121.56,-54.8,70.11,-57.23,2.859,264
23172,-118.35,75.92,-121.58,-54.8,70.11,-57.24,2.859,215
23186,-118.39,75.93,-121.62,-54.82,70.11,-57.26,2.859,236
23201,-118.43,75.92,-121.64,-54.82,70.11,-57.26,2.854,247
23215,-118.48,75.91,-121.68,-54.87,70.12,-57.3,2.859,242
23229,-118.48,75.91,-121.68,-54.91,70.12,-57.33,2.859,276
23243,-118.52,75.9,-121.71,-54.94,70.12,-57.36,2.859,231
23258,-118.54,75.89,-121.71,-54.99,70.11,-57.4,2.859,236
23272,-118.61,75.87,-121.76,-54.99,70.11,-57.4,2.859,227
23286,-118.66,75.85,-121.81,-55.02,70.12,-57.43,2.859,239
23301,-118.71,75.82,-121.85,-55.05,70.13,-57.46,2.859,236
23315,-118.71,75.82,-121.85,-55.04,70.13,-57.47,2.859,282
23329,-118.73,75.82,-121.87,-55.05,70.13,-57.48,2.859,251
23344,-118.76,75.8,-121.91,-55.05,70.13,-57.48,2.859,269
23358,-118.82,75.8,-121.97,-55.04,70.12,-57.49,2.859,229
23372,-118.86,75.79,-122.01,-55.04,70.12,-57.49,2.859,219
23387,-118.86,75.79,-122.01,-55.05,70.11,-57.5,2.854,224
23401,-118.9,75.78,-122.05,-55.05,70.12,-57.52,2.859,224
23415,-118.92,75.77,-122.07,-55.05,70.12,-57.52,2.859,209
23429,-118.92,75.77,-122.08,-55.07,70.12,-57.55,2.859,198
23444,-118.91,75.77,-122.08,-55.08,70.12,-57.58,2.864,197
23458,-118.91,75.77,-122.08,-55.11,70.12,-57.62,2.854,200
23472,-118.93,75.75,-122.1,-55.14,70.12,-57.66,2.859,220
23487,-118.93,75.75,-122.11,-55.14,70.12,-57.66,2.859,272
23501,-118.93,75.74,-122.11,-55.16,70.12,-57.7,2.859,223
23515,-118.93,75.74,-122.12,-55.18,70.12,-57.73,2.859,230
23530,-118.93,75.74,-122.12,-55.21,70.11,-57.78,2.859,223
23544,-118.94,75.73,-122.12,-55.22,70.11,-57.81,2.859,209
23558,-118.92,75.72,-122.1,-55.25,70.11,-57.84,2.859,201
23573,-118.91,75.71,-122.07,-55.25,70.11,-57.84,2.859,223
23587,-118.91,75.71,-122.07,-55.28,70.11,-57.87,2.859,204
23601,-118.91,75.71,-122.07,-55.28,70.11,-57.87,2.859,245
23615,-118.95,75.69,-122.1,-55.29,70.11,-57.89,2.859,260
23630,-118.93,75.69,-122.08,-55.3,70.11,-57.9,2.859,244
23644,-118.93,75.68,-122.08,-55.3,70.11,-57.9,2.859,217
23658,-118.97,75.67,-122.12,-55.3,70.11,-57.91,2.859,188
23673,-118.97,75.67,-122.13,-55.31,70.12,-57.93,2.859,194
23687,-118.97,75.67,-122.13,-55.33,70.12,-57.95,2.859,216
23701,-118.97,75.67,-122.12,-55.36,70.11,-57.98,2.859,232
23716,-118.95,75.67,-122.1,-55.36,70.11,-57.98,2.859,229
23730,-118.96,75.66,-122.11,-55.36,70.11,-57.99,2.859,229
23744,-118.97,75.65,-122.12,-55.39,70.11,-58.02,2.859,232
23759,-118.97,75.65,-122.12,-55.38,70.11,-58.04,2.854,227
23773,-118.96,75.65,-122.11,-55.39,70.11,-58.05,2.859,240
23787,-118.97,75.65,-122.12,-55.39,70.11,-58.05,2.859,266
23801,-119,75.64,-122.15,-55.38,70.11,-58.05,2.859,230
23816,-119.02,75.64,-122.18,-55.37,70.11,-58.06,2.859,206
23830,-119.02,75.64,-122.18,-55.37,70.12,-58.07,2.859,222
23891,-119.04,75.65,-122.21,-55.37,70.12,-58.08,2.864,218
23906,-119.07,75.64,-122.25,-55.36,70.12,-58.09,2.859,270
23920,-119.06,75.64,-122.25,-55.35,70.12,-58.09,2.859,262
23935,-119.05,75.65,-122.26,-55.34,70.13,-58.11,2.859,249
23950,-119.05,75.65,-122.27,-55.32,70.13,-58.1,2.859,232
23964,-119.06,75.64,-122.29,-55.32,70.13,-58.12,2.859,206
23977,-119.07,75.63,-122.31,-55.31,70.13,-58.14,2.859,222
23992,-119.11,75.64,-122.35,-55.3,70.13,-58.14,2.859,229
24006,-119.11,75.65,-122.36,-55.3,70.13,-58.15,2.859,258
24021,-119.11,75.65,-122.38,-55.3,70.13,-58.18,2.859,236
24035,-119.1,75.65,-122.38,-55.3,70.13,-58.19,2.859,261
24050,-119.11,75.65,-122.4,-55.29,70.14,-58.19,2.859,252
24064,-119.12,75.65,-122.43,-55.28,70.14,-58.21,2.859,246
24079,-119.15,75.65,-122.46,-55.28,70.15,-58.22,2.859,245
24093,-119.15,75.65,-122.47,-55.29,70.15,-58.24,2.859,276
24108,-119.16,75.65,-122.49,-55.29,70.15,-58.24,2.864,284
24122,-119.18,75.65,-122.5,-55.31,70.15,-58.26,2.864,254
24136,-119.22,75.65,-122.54,-55.32,70.15,-58.27,2.864,239
24151,-119.22,75.65,-122.54,-55.33,70.15,-58.29,2.859,214
24165,-119.23,75.65,-122.55,-55.34,70.15,-58.31,2.864,219
24179,-119.26,75.65,-122.58,-55.34,70.15,-58.31,2.859,249
24193,-119.25,75.65,-122.58,-55.35,70.16,-58.33,2.864,287
24208,-119.28,75.65,-122.61,-55.38,70.16,-58.36,2.859,268
24222,-119.28,75.64,-122.62,-55.39,70.16,-58.39,2.864,257
24237,-119.28,75.64,-122.62,-55.4,70.16,-58.42,2.859,238
24251,-119.29,75.63,-122.63,-55.4,70.16,-58.42,2.859,223
24264,-119.31,75.63,-122.65,-55.41,70.17,-58.43,2.859,206
24279,-119.36,75.62,-122.71,-55.42,70.17,-58.45,2.864,266
24293,-119.39,75.6,-122.75,-55.45,70.17,-58.49,2.859,273
24308,-119.39,75.6,-122.75,-55.45,70.18,-58.52,2.859,245
24322,-119.41,75.6,-122.79,-55.45,70.18,-58.52,2.864,225
24336,-119.46,75.6,-122.85,-55.45,70.18,-58.54,2.859,219
24350,-119.51,75.6,-122.9,-55.47,70.19,-58.57,2.864,238
24365,-119.54,75.59,-122.94,-55.49,70.2,-58.6,2.864,236
24379,-119.54,75.59,-122.94,-55.49,70.2,-58.61,2.859,244
24393,-119.55,75.59,-122.96,-55.49,70.2,-58.61,2.864,251
24407,-119.58,75.59,-122.99,-55.49,70.21,-58.63,2.859,265
24422,-119.63,75.58,-123.03,-55.5,70.21,-58.65,2.859,246
24436,-119.66,75.57,-123.07,-55.52,70.21,-58.67,2.859,307
24451,-119.66,75.57,-123.07,-55.52,70.21,-58.68,2.859,292
24465,-119.68,75.57,-123.11,-55.52,70.21,-58.68,2.864,267
24479,-119.68,75.57,-123.14,-55.51,70.21,-58.71,2.859,248
24493,-119.7,75.57,-123.18,-55.49,70.22,-58.72,2.859,260
24508,-119.72,75.57,-123.23,-55.49,70.22,-58.73,2.859,272
24522,-119.72,75.57,-123.23,-55.48,70.22,-58.75,2.864,264
24536,-119.73,75.57,-123.25,-55.5,70.23,-58.79,2.859,279
24551,-119.77,75.56,-123.29,-55.5,70.23,-58.79,2.859,236
24564,-119.79,75.55,-123.34,-55.5,70.23,-58.82,2.859,223
24579,-119.78,75.55,-123.35,-55.54,70.23,-58.86,2.864,216
24593,-119.78,75.55,-123.35,-55.55,70.23,-58.89,2.859,226
24608,-119.79,75.55,-123.38,-55.57,70.24,-58.93,2.864,264
24622,-119.8,75.56,-123.4,-55.57,70.24,-58.93,2.859,262
24637,-119.8,75.55,-123.43,-55.57,70.24,-58.95,2.859,257
24651,-119.82,75.55,-123.45,-55.58,70.24,-58.98,2.859,229
24666,-119.85,75.56,-123.49,-55.61,70.25,-59.02,2.864,225
24681,-119.85,75.56,-123.49,-55.63,70.25,-59.06,2.859,268
24695,-119.9,75.55,-123.54,-55.63,70.25,-59.06,2.859,298
24709,-119.88,75.55,-123.53,-55.65,70.26,-59.09,2.864,266
24724,-119.89,75.54,-123.52,-55.66,70.25,-59.11,2.859,242
24739,-119.89,75.54,-123.53,-55.67,70.26,-59.12,2.864,205
24754,-119.92,75.53,-123.56,-55.68,70.25,-59.15,2.859,216
24768,-119.92,75.53,-123.56,-55.69,70.24,-59.15,2.859,226
24783,-119.9,75.53,-123.53,-55.69,70.24,-59.15,2.859,234
24797,-119.89,75.53,-123.53,-55.69,70.24,-59.15,2.859,277
24812,-119.9,75.53,-123.53,-55.69,70.24,-59.16,2.859,260
24826,-119.87,75.53,-123.5,-55.69,70.24,-59.16,2.859,271
24841,-119.87,75.53,-123.5,-55.71,70.24,-59.18,2.859,246
24855,-119.86,75.52,-123.5,-55.71,70.24,-59.18,2.859,243
24870,-119.86,75.52,-123.5,-55.72,70.24,-59.21,2.859,265
24884,-119.86,75.52,-123.51,-55.71,70.23,-59.22,2.859,265
24899,-119.86,75.52,-123.53,-55.72,70.23,-59.23,2.864,272
24914,-119.85,75.53,-123.53,-55.71,70.23,-59.25,2.859,264
24929,-119.85,75.53,-123.53,-55.7,70.23,-59.25,2.859,245
24943,-119.85,75.54,-123.54,-55.7,70.23,-59.25,2.859,278
24957,-119.87,75.54,-123.57,-55.68,70.23,-59.24,2.859,274
24972,-119.86,75.53,-123.57,-55.7,70.23,-59.27,2.864,242
24987,-119.86,75.53,-123.56,-55.7,70.22,-59.28,2.864,247
25002,-119.85,75.53,-123.55,-55.7,70.22,-59.29,2.864,216
25016,-119.85,75.53,-123.55,-55.7,70.22,-59.29,2.859,203
25030,-119.87,75.52,-123.56,-55.69,70.22,-59.29,2.859,237
25045,-119.85,75.52,-123.55,-55.67,70.22,-59.28,2.859,259
25060,-119.86,75.52,-123.56,-55.66,70.22,-59.28,2.864,249
25074,-119.86,75.52,-123.56,-55.63,70.22,-59.26,2.859,221
25089,-119.86,75.52,-123.56,-55.62,70.21,-59.25,2.859,208
25103,-119.87,75.53,-123.57,-55.62,70.21,-59.25,2.859,189
25118,-119.86,75.53,-123.56,-55.62,70.21,-59.25,2.859,242
25132,-119.86,75.54,-123.57,-55.61,70.2,-59.26,2.859,219
25147,-119.83,75.54,-123.54,-55.62,70.2,-59.28,2.859,190
25162,-119.81,75.53,-123.53,-55.63,70.2,-59.31,2.859,202
25177,-119.81,75.53,-123.53,-55.64,70.2,-59.32,2.859,190
25191,-119.81,75.53,-123.54,-55.64,70.2,-59.32,2.864,225
25205,-119.81,75.53,-123.56,-55.65,70.2,-59.35,2.859,224
25220,-119.82,75.53,-123.58,-55.64,70.2,-59.37,2.864,253
25235,-119.82,75.53,-123.59,-55.62,70.2,-59.38,2.859,254
25250,-119.82,75.53,-123.59,-55.6,70.21,-59.38,2.859,264
25264,-119.82,75.53,-123.59,-55.6,70.21,-59.38,2.859,267
25278,-119.82,75.53,-123.59,-55.6,70.21,-59.37,2.859,262
25293,-119.81,75.53,-123.59,-55.61,70.21,-59.39,2.859,295
25307,-119.82,75.52,-123.59,-55.63,70.21,-59.42,2.859,275
25322,-119.83,75.51,-123.6,-55.65,70.21,-59.44,2.859,261
25337,-119.83,75.51,-123.6,-55.67,70.21,-59.47,2.859,298
25351,-119.85,75.51,-123.62,-55.67,70.21,-59.47,2.864,260
25365,-119.85,75.5,-123.62,-55.67,70.2,-59.47,2.859,262
25380,-119.83,75.49,-123.61,-55.69,70.21,-59.5,2.859,235
25395,-119.85,75.48,-123.63,-55.69,70.21,-59.51,2.859,237
25410,-119.88,75.47,-123.67,-55.7,70.21,-59.53,2.859,252
25425,-119.88,75.47,-123.67,-55.7,70.21,-59.53,2.859,266
25438,-119.89,75.46,-123.67,-55.71,70.22,-59.55,2.859,262
25453,-119.9,75.46,-123.68,-55.74,70.22,-59.58,2.859,255
25468,-119.94,75.45,-123.71,-55.76,70.23,-59.59,2.859,252
25483,-119.98,75.44,-123.74,-55.79,70.23,-59.61,2.859,262
25497,-119.99,75.43,-123.75,-55.82,70.23,-59.63,2.859,234
25512,-119.99,75.43,-123.75,-55.82,70.23,-59.63,2.859,252
25526,-120.03,75.43,-123.79,-55.82,70.23,-59.64,2.859,229
25541,-120.06,75.42,-123.81,-55.84,70.24,-59.66,2.859,236
25555,-120.07,75.42,-123.82,-55.85,70.24,-59.68,2.859,281
25570,-120.07,75.41,-123.82,-55.85,70.25,-59.69,2.864,278
25585,-120.07,75.41,-123.82,-55.85,70.25,-59.69,2.859,290
25599,-120.09,75.4,-123.84,-55.84,70.25,-59.7,2.859,253
25613,-120.13,75.4,-123.89,-55.83,70.25,-59.7,2.864,263
25628,-120.16,75.41,-123.93,-55.84,70.24,-59.71,2.859,260
25643,-120.19,75.41,-123.96,-55.85,70.24,-59.73,2.859,292
25658,-120.21,75.4,-123.98,-55.85,70.24,-59.74,2.859,267
25673,-120.21,75.4,-123.98,-55.85,70.24,-59.74,2.859,227
25686,-120.24,75.39,-124.01,-55.86,70.25,-59.76,2.859,208
25701,-120.23,75.39,-124,-55.87,70.25,-59.78,2.864,219
25716,-120.22,75.39,-124,-55.86,70.25,-59.79,2.859,244
25731,-120.24,75.38,-124.03,-55.87,70.25,-59.82,2.864,237
25746,-120.27,75.37,-124.08,-55.87,70.25,-59.84,2.859,237
25760,-120.27,75.37,-124.08,-55.87,70.25,-59.84,2.859,206
25774,-120.29,75.37,-124.1,-55.9,70.26,-59.87,2.859,214
25789,-120.3,75.38,-124.11,-55.93,70.26,-59.91,2.859,193
25804,-120.29,75.36,-124.1,-55.96,70.26,-59.95,2.859,188
25818,-120.29,75.36,-124.1,-55.97,70.26,-59.97,2.859,209
25833,-120.29,75.36,-124.1,-55.97,70.26,-59.97,2.859,195
25847,-120.3,75.36,-124.12,-55.97,70.26,-59.97,2.859,202
25862,-120.3,75.36,-124.13,-55.98,70.26,-60,2.859,180
25876,-120.31,75.36,-124.15,-55.96,70.26,-60,2.859,219
25891,-120.3,75.37,-124.16,-55.94,70.26,-60.01,2.859,198
25906,-120.32,75.37,-124.19,-55.93,70.26,-60.02,2.864,235
25921,-120.32,75.37,-124.19,-55.93,70.26,-60.02,2.859,279
25934,-120.34,75.37,-124.23,-55.92,70.26,-60.03,2.864,245
25949,-120.35,75.37,-124.25,-55.91,70.26,-60.03,2.859,234
25964,-120.35,75.37,-124.25,-55.9,70.26,-60.04,2.859,262
25979,-120.34,75.37,-124.25,-55.91,70.26,-60.04,2.859,264
25994,-120.32,75.36,-124.24,-55.91,70.26,-60.04,2.859,277
26008,-120.32,75.36,-124.24,-55.91,70.26,-60.04,2.859,271
26022,-120.32,75.36,-124.24,-55.91,70.26,-60.04,2.859,250
26037,-120.32,75.36,-124.23,-55.9,70.26,-60.04,2.859,250
26052,-120.29,75.34,-124.21,-55.9,70.26,-60.04,2.859,242
26066,-120.28,75.33,-124.21,-55.89,70.26,-60.04,2.859,218
26081,-120.28,75.33,-124.21,-55.89,70.26,-60.04,2.859,231
26095,-120.28,75.32,-124.22,-55.87,70.26,-60.01,2.864,202
26110,-120.28,75.32,-124.21,-55.86,70.27,-60,2.864,234
26124,-120.27,75.32,-124.19,-55.86,70.27,-59.99,2.859,196
26139,-120.27,75.32,-124.18,-55.87,70.27,-60,2.859,238
26154,-120.26,75.32,-124.17,-55.87,70.27,-60,2.859,204
26168,-120.26,75.32,-124.17,-55.88,70.27,-60,2.859,244
26182,-120.26,75.31,-124.16,-55.9,70.27,-60,2.864,212
26197,-120.29,75.31,-124.17,-55.92,70.26,-60.01,2.859,227
26212,-120.29,75.31,-124.16,-55.94,70.27,-60.03,2.859,198
26227,-120.3,75.31,-124.17,-55.95,70.26,-60.03,2.859,192
26242,-120.31,75.3,-124.17,-55.95,70.26,-60.03,2.859,190
26256,-120.31,75.3,-124.17,-55.94,70.26,-60,2.859,214
26270,-120.32,75.28,-124.17,-55.93,70.25,-59.98,2.859,217
26285,-120.33,75.27,-124.16,-55.97,70.25,-60,2.859,206
26300,-120.33,75.27,-124.14,-55.97,70.25,-59.98,2.864,234
26315,-120.33,75.27,-124.14,-55.96,70.24,-59.96,2.859,195
26329,-120.33,75.27,-124.14,-55.96,70.24,-59.96,2.864,219
26343,-120.33,75.26,-124.12,-55.97,70.23,-59.95,2.859,208
26358,-120.31,75.26,-124.09,-55.96,70.23,-59.92,2.864,261
26373,-120.3,75.25,-124.07,-55.95,70.23,-59.9,2.859,262
26387,-120.29,75.25,-124.06,-55.91,70.22,-59.86,2.864,270
26402,-120.28,75.25,-124.07,-55.91,70.22,-59.86,2.859,254
26416,-120.28,75.25,-124.07,-55.88,70.22,-59.83,2.859,237
26431,-120.27,75.25,-124.06,-55.84,70.22,-59.81,2.859,281
26445,-120.25,75.26,-124.04,-55.8,70.22,-59.77,2.859,284
26460,-120.25,75.26,-124.02,-55.75,70.22,-59.72,2.859,300
26475,-120.22,75.26,-123.99,-55.72,70.22,-59.69,2.859,287
26490,-120.24,75.26,-124,-55.72,70.22,-59.69,2.864,285
26504,-120.24,75.26,-124,-55.68,70.23,-59.65,2.864,249
26518,-120.21,75.27,-123.98,-55.68,70.23,-59.64,2.864,246
26533,-120.18,75.28,-123.96,-55.66,70.23,-59.64,2.859,248
26548,-120.16,75.29,-123.97,-55.65,70.22,-59.64,2.859,257
26562,-120.13,75.29,-123.96,-55.65,70.22,-59.64,2.859,215
26577,-120.13,75.29,-123.96,-55.63,70.22,-59.63,2.859,201
26591,-120.09,75.29,-123.94,-55.63,70.22,-59.64,2.864,205
26635,-120.09,75.29,-123.94,-55.62,70.22,-59.65,2.864,209
26650,-120.11,75.29,-123.97,-55.62,70.22,-59.64,2.864,229
26665,-120.13,75.29,-123.99,-55.64,70.22,-59.67,2.859,230
26680,-120.13,75.28,-124.01,-55.66,70.22,-59.71,2.859,193
26694,-120.14,75.29,-124.02,-55.68,70.21,-59.73,2.864,204
26709,-120.15,75.29,-124.05,-55.68,70.21,-59.73,2.864,203
26724,-120.16,75.29,-124.07,-55.67,70.21,-59.73,2.859,215
26738,-120.14,75.29,-124.07,-55.66,70.21,-59.73,2.859,252
26753,-120.14,75.29,-124.1,-55.64,70.21,-59.72,2.859,244
26768,-120.16,75.3,-124.13,-55.61,70.21,-59.7,2.859,207
26782,-120.19,75.3,-124.15,-55.59,70.22,-59.68,2.859,180
26797,-120.17,75.3,-124.14,-55.57,70.22,-59.65,2.859,210
26812,-120.19,75.3,-124.17,-55.57,70.22,-59.65,2.859,235
26826,-120.19,75.3,-124.17,-55.56,70.22,-59.63,2.859,253
26840,-120.2,75.3,-124.17,-55.56,70.22,-59.63,2.859,248
26855,-120.24,75.29,-124.22,-55.56,70.23,-59.62,2.859,240
26869,-120.3,75.28,-124.28,-55.58,70.24,-59.64,2.864,215
26884,-120.32,75.27,-124.29,-55.57,70.24,-59.63,2.859,196
26899,-120.35,75.26,-124.33,-55.57,70.24,-59.63,2.859,156
26913,-120.35,75.26,-124.33,-55.59,70.24,-59.65,2.859,148
26927,-120.41,75.25,-124.39,-55.62,70.25,-59.68,2.859,132
26942,-120.46,75.25,-124.44,-55.67,70.27,-59.71,2.859,114
26956,-120.49,75.24,-124.46,-55.71,70.27,-59.73,2.859,99
26971,-120.53,75.23,-124.5,-55.71,70.27,-59.73,2.864,146
26985,-120.53,75.23,-124.5,-55.75,70.28,-59.74,2.859,185
26999,-120.59,75.22,-124.55,-55.78,70.3,-59.75,2.859,151
27014,-120.64,75.2,-124.61,-55.81,70.32,-59.75,2.864,125
27028,-120.67,75.18,-124.64,-55.85,70.35,-59.76,2.864,136
27043,-120.58,75.16,-124.57,-55.85,70.35,-59.76,2.859,115
27057,-120.52,75.11,-124.49,-55.94,70.38,-59.88,2.859,176
27072,-120.52,75.11,-124.49,-56.1,70.42,-60.12,2.859,156
27086,-120.53,75.01,-124.49,-56.28,70.48,-60.42,2.859,186
27101,-120.48,74.88,-124.44,-56.48,70.54,-60.75,2.854,159
27115,-120.49,74.72,-124.43,-56.59,70.58,-61,2.854,179
27130,-120.42,74.57,-124.35,-56.59,70.58,-61,2.854,164
27144,-120.42,74.57,-124.35,-56.62,70.6,-61.16,2.854,149
27158,-120.34,74.45,-124.31,-56.53,70.61,-61.1,2.854,125
27173,-120.36,74.39,-124.37,-56.51,70.64,-61.04,2.849,114
27188,-120.47,74.35,-124.47,-56.71,70.67,-61.12,2.854,112
27202,-120.7,74.32,-124.65,-56.71,70.67,-61.12,2.854,144
27216,-120.93,74.3,-124.85,-57,70.69,-61.26,2.854,143
27231,-120.93,74.3,-124.85,-57.36,70.72,-61.5,2.849,118
27245,-121.2,74.27,-125.03,-57.82,70.79,-61.91,2.854,216
27260,-121.57,74.18,-125.27,-58.19,70.83,-62.25,2.849,210
27274,-122.04,74.08,-125.69,-58.34,70.87,-62.29,2.854,178
27289,-122.37,74.1,-126.07,-58.34,70.87,-62.29,2.854,251
27303,-122.37,74.1,-126.07,-58.43,70.89,-62.29,2.854,202
27317,-122.55,74.19,-126.29,-58.61,70.93,-62.4,2.854,158
27332,-122.86,74.28,-126.56,-58.95,70.99,-62.59,2.854,138
27347,-123.4,74.32,-126.98,-59.44,71.05,-62.86,2.854,237
27361,-124.06,74.28,-127.47,-59.44,71.05,-62.86,2.854,205
27375,-124.61,74.24,-127.79,-60.03,71.13,-63.19,2.854,269
27390,-124.61,74.24,-127.79,-60.59,71.2,-63.56,2.854,247
27404,-125.06,74.15,-127.98,-61.04,71.27,-63.88,2.854,267
27419,-125.48,74.02,-128.18,-61.32,71.35,-64,2.854,236
27433,-125.88,73.9,-128.38,-61.32,71.35,-64,2.854,216
27447,-126.24,73.79,-128.5,-61.5,71.46,-64.03,2.854,241
27462,-126.24,73.79,-128.5,-61.68,71.59,-64.07,2.849,296
27476,-126.52,73.68,-128.5,-61.83,71.75,-64.12,2.849,377
27491,-126.81,73.55,-128.53,-61.83,71.91,-64.08,2.84,327
27506,-127.26,73.43,-128.72,-61.7,72.09,-63.78,2.845,323
27520,-127.68,73.38,-128.82,-61.7,72.09,-63.78,2.84,301
27533,-127.68,73.38,-128.82,-61.51,72.27,-63.33,2.84,306
27547,-127.91,73.44,-128.62,-61.38,72.43,-62.94,2.84,285
27562,-128.28,73.51,-128.57,-61.16,72.54,-62.56,2.84,250
27577,-128.6,73.62,-128.63,-60.84,72.63,-62.19,2.845,202
27592,-128.82,73.77,-128.75,-60.84,72.63,-62.19,2.845,203
27606,-128.96,73.96,-128.9,-60.51,72.71,-61.91,2.845,193
27621,-128.96,73.96,-128.9,-60.18,72.76,-61.76,2.849,235
27635,-129.02,74.16,-129.08,-59.8,72.8,-61.62,2.849,197
27650,-129.08,74.35,-129.29,-59.34,72.84,-61.42,2.854,160
27665,-129.02,74.52,-129.44,-59.34,72.84,-61.42,2.849,189
27679,-128.89,74.66,-129.54,-58.78,72.87,-61.13,2.849,232
27693,-128.89,74.66,-129.54,-57.95,72.89,-60.51,2.845,204
27708,-128.74,74.83,-129.62,-57.06,72.92,-59.82,2.845,174
27723,-128.55,75.02,-129.61,-56.2,72.95,-59.08,2.845,144
27737,-128.38,75.23,-129.48,-55.39,72.94,-58.37,2.845,150
27752,-128.17,75.47,-129.17,-55.39,72.94,-58.37,2.845,129
27766,-128.02,75.72,-128.87,-54.66,72.89,-57.68,2.849,106
27781,-128.02,75.72,-128.87,-54.17,72.82,-57.23,2.845,100
27795,-128,75.99,-128.66,-53.91,72.74,-57.01,2.849,104
27810,-128.07,76.34,-128.56,-53.68,72.6,-57.09,2.849,93
27825,-128.09,76.88,-128.56,-53.68,72.6,-57.09,2.849,77
27839,-128.44,77.42,-128.95,-53.88,72.34,-57.7,2.845,67
27854,-129.03,78.13,-129.65,-54.25,71.97,-58.54,2.84,60
27869,-129.03,78.13,-129.65,-54.97,71.66,-59.57,2.83,55
27883,-129.88,78.9,-130.53,-56.04,71.32,-60.82,2.825,53
27898,-130.81,79.6,-131.28,-57.16,70.98,-62.04,2.81,51
27913,-131.95,80.36,-132.17,-57.16,70.98,-62.04,2.786,50
27927,-132.62,81.17,-132.79,-58.27,70.68,-63.14,2.737,52
27942,-132.62,81.17,-132.79,-59.14,70.44,-63.85,2.688,52
27956,-132.43,81.85,-132.81,-59.99,70.27,-64.33,2.639,54
27971,-131.73,82.41,-132.08,-60.81,70.17,-64.72,2.595,56
27985,-131.67,82.74,-131.86,-60.81,70.17,-64.72,2.566,58
28000,-132.17,82.91,-132.12,-60.81,70.19,-64.39,2.571,60
28014,-132.88,83.15,-132.39,-59.74,70.36,-62.96,2.581,61
28029,-132.88,83.15,-132.39,-58.25,70.63,-61.25,2.595,63
28043,-132.83,83.46,-131.78,-55.96,70.94,-58.87,2.62,62
28058,-132.23,83.74,-130.61,-53.03,71.32,-55.9,2.649,61
28073,-132.03,83.99,-129.94,-53.03,71.32,-55.9,2.669,60
28087,-132.28,84.24,-129.71,-49.6,71.72,-52.47,2.683,58
28102,-133.32,84.45,-130.26,-45.85,72.11,-48.61,2.688,54
28117,-133.32,84.45,-130.26,-42.01,72.47,-44.4,2.683,51
28131,-134.13,84.62,-130.65,-38.27,72.78,-40.1,2.678,48
28146,-134.89,84.77,-131,-34.89,73.06,-36.14,2.674,47
28161,-135.5,84.9,-131.38,-34.89,73.06,-36.14,2.674,47
28175,-136.46,85.01,-132.34,-31.91,73.31,-32.69,2.674,44
28190,-136.46,85.01,-132.34,-29.25,73.55,-29.76,2.678,42
28204,-138.24,85.04,-134.32,-26.95,73.78,-27.4,2.693,40
28219,-140.17,85.08,-136.7,-25.02,73.99,-25.65,2.703,39
28233,-140.78,85.22,-137.84,-25.02,73.99,-25.65,2.717,39
28248,-140.98,85.35,-138.61,-23.42,74.21,-24.4,2.727,39
28262,-141.91,85.37,-140.1,-22.03,74.44,-23.53,2.737,39
28277,-141.91,85.37,-140.1,-20.86,74.67,-22.97,2.742,39
28291,-143.53,85.29,-142.31,-19.83,74.89,-22.55,2.747,40
28306,-145.08,85.17,-144.45,-18.98,75.09,-22.21,2.757,39
28321,-146.22,85.07,-146.12,-18.98,75.09,-22.21,2.761,45
28335,-146.76,84.99,-147.12,-18.32,75.26,-21.95,2.766,44
28350,-147.04,84.88,-147.78,-17.86,75.41,-21.79,2.771,45
28365,-147.04,84.88,-147.78,-17.61,75.55,-21.74,2.776,42
28379,-147.27,84.76,-148.33,-17.36,75.59,-21.63,2.786,43
28394,-146.62,84.75,-147.94,-17.36,75.59,-21.63,2.786,44
28408,-146.65,84.73,-148.17,-16.9,75.64,-21.23,2.796,44
28423,-146.87,84.71,-148.56,-16.59,75.73,-20.97,2.801,50
28438,-146.87,84.71,-148.56,-16.57,75.83,-21.11,2.81,54
28452,-146.48,84.69,-148.41,-16.31,75.95,-21.08,2.815,61
28467,-147.01,84.72,-149.22,-16.2,76.1,-21.16,2.825,61
28482,-148.18,84.68,-150.63,-16.2,76.1,-21.16,2.83,60
28496,-149.7,84.51,-152.22,-16.22,76.28,-21.27,2.83,54
28511,-151.13,84.32,-153.53,-16.33,76.44,-21.26,2.835,54
28525,-151.13,84.32,-153.53,-16.71,76.56,-21.36,2.84,56
28540,-151.31,84.16,-153.46,-17.14,76.69,-21.43,2.845,73
28554,-151.06,84.02,-152.92,-17.14,76.69,-21.43,2.845,69
28569,-150.69,83.88,-152.34,-17.51,76.85,-21.49,2.849,71
28583,-150.14,83.68,-151.67,-17.93,77.04,-21.78,2.854,77
28598,-149.58,83.47,-151.11,-18.26,77.27,-22.2,2.859,89
28613,-149.58,83.47,-151.11,-18.44,77.48,-22.52,2.859,86
28627,-149.21,83.29,-150.76,-18.55,77.71,-22.68,2.869,81
28642,-149.15,83.16,-150.65,-18.55,77.71,-22.68,2.869,77
28656,-149.44,83.04,-150.85,-18.69,77.92,-22.8,2.874,81
28671,-149.79,82.91,-151.14,-18.91,78.13,-23.01,2.874,78
28692,-150.21,82.78,-151.57,-19.17,78.29,-23.35,2.874,78
28708,-150.82,82.65,-152.25,-19.38,78.42,-23.67,2.879,74
28724,-151.48,82.52,-153.02,-19.58,78.51,-23.95,2.879,66
28739,-151.9,82.41,-153.5,-19.77,78.58,-24.21,2.879,71
28755,-151.9,82.41,-153.5,-19.87,78.61,-24.36,2.879,70
28770,-152.24,82.3,-153.9,-19.85,78.64,-24.35,2.879,68
28786,-152.46,82.22,-154.12,-19.83,78.67,-24.32,2.884,67
28802,-152.59,82.15,-154.22,-19.83,78.67,-24.32,2.884,61
28817,-152.6,82.06,-154.21,-19.86,78.72,-24.42,2.884,69
28832,-152.81,81.95,-154.43,-19.63,78.77,-24.33,2.884,73
28846,-152.87,81.86,-154.44,-19.47,78.83,-24.21,2.879,81
28861,-152.87,81.86,-154.44,-19.4,78.88,-24.09,2.884,69
28875,-152.84,81.74,-154.27,-19.4,78.88,-24.09,2.884,79
28889,-152.82,81.62,-154.03,-19.32,78.96,-23.88,2.884,70
28903,-152.57,81.51,-153.5,-19.33,79.04,-23.7,2.884,66
28918,-152.22,81.38,-152.89,-19.48,79.1,-23.69,2.884,60
28932,-152.22,81.38,-152.89,-19.64,79.14,-23.67,2.884,57
28946,-152.13,81.29,-152.59,-19.94,79.18,-23.78,2.889,53
28961,-152.21,81.26,-152.58,-19.94,79.18,-23.78,2.884,51
28975,-152.33,81.26,-152.79,-20.29,79.2,-24.07,2.884,49
28989,-152.38,81.33,-153.14,-20.58,79.17,-24.43,2.884,50
29004,-152.38,81.33,-153.14,-20.79,79.1,-24.81,2.884,48
29017,-152.37,81.39,-153.54,-20.93,79.01,-25.14,2.889,46
29032,-152.3,81.43,-153.89,-20.93,79.01,-25.14,2.889,48
29046,-152.1,81.46,-154.1,-20.99,78.92,-25.39,2.884,45
29061,-152.03,81.5,-154.34,-20.83,78.83,-25.37,2.889,44
29075,-152.03,81.5,-154.34,-20.67,78.75,-25.29,2.884,44
29089,-151.8,81.57,-154.32,-20.53,78.67,-25.2,2.884,44
29104,-151.47,81.64,-154.1,-20.53,78.67,-25.2,2.884,44
29118,-151.02,81.68,-153.72,-20.44,78.6,-25.14,2.884,45
29132,-150.67,81.72,-153.37,-20.34,78.52,-25.03,2.884,45
29147,-150.67,81.72,-153.37,-20.3,78.45,-24.95,2.884,48
29161,-150.38,81.76,-153,-20.24,78.38,-24.82,2.884,49
29175,-150,81.8,-152.5,-20.24,78.38,-24.82,2.889,50
29189,-149.55,81.86,-151.93,-20.22,78.3,-24.7,2.884,50
29204,-149.21,81.91,-151.5,-20.24,78.21,-24.6,2.884,48
29218,-148.81,81.97,-151.1,-20.3,78.12,-24.58,2.884,47
29233,-148.81,81.97,-151.1,-20.29,78.02,-24.55,2.889,49
29246,-148.46,82.01,-150.81,-20.29,78.02,-24.55,2.889,46
29260,-148.2,82.03,-150.63,-20.29,77.93,-24.54,2.889,42
29275,-147.87,82.06,-150.35,-20.27,77.84,-24.53,2.889,45
29289,-147.47,82.08,-149.97,-20.22,77.76,-24.45,2.889,46
29304,-147.47,82.08,-149.97,-20.19,77.69,-24.42,2.893,43
29318,-147.04,82.08,-149.53,-20.19,77.69,-24.42,2.889,50
29332,-146.57,82.06,-149.04,-20.21,77.63,-24.45,2.889,49
29346,-146.26,82.06,-148.77,-20.14,77.58,-24.43,2.889,47
29361,-146.03,82.07,-148.57,-20.06,77.54,-24.39,2.889,46
29408,-145.85,82.1,-148.43,-19.93,77.5,-24.29,2.889,41
29423,-145.73,82.12,-148.35,-19.79,77.47,-24.17,2.889,43
29437,-145.52,82.15,-148.19,-19.68,77.44,-24.11,2.889,44
29452,-145.36,82.16,-148.09,-19.58,77.4,-24.05,2.893,44
29466,-145.3,82.18,-148.11,-19.44,77.37,-23.95,2.889,45
29480,-145.22,82.19,-148.07,-19.33,77.34,-23.86,2.889,47
29495,-145.08,82.22,-147.96,-19.26,77.32,-23.8,2.893,50
29509,-144.97,82.25,-147.86,-19.17,77.29,-23.71,2.893,48
29524,-144.84,82.25,-147.72,-19.15,77.27,-23.69,2.893,48
29538,-144.76,82.25,-147.61,-19.11,77.26,-23.64,2.893,46
29553,-144.76,82.25,-147.61,-19.09,77.24,-23.6,2.893,48
29566,-144.6,82.24,-147.4,-19.09,77.24,-23.6,2.893,46
29580,-144.48,82.24,-147.24,-19.07,77.22,-23.54,2.893,45
29595,-144.38,82.24,-147.08,-19.04,77.21,-23.48,2.898,49
29609,-144.25,82.26,-146.91,-19,77.19,-23.41,2.893,50
29623,-144.25,82.26,-146.91,-19,77.18,-23.37,2.893,46
29637,-144.2,82.27,-146.84,-19,77.18,-23.37,2.893,46
29651,-144.14,82.27,-146.77,-18.99,77.17,-23.35,2.893,46
29665,-144.08,82.28,-146.72,-19.02,77.16,-23.36,2.898,51
29680,-144.01,82.28,-146.68,-19.05,77.16,-23.41,2.893,51
29694,-144.01,82.28,-146.68,-19.1,77.15,-23.48,2.893,50
29708,-143.94,82.29,-146.66,-19.1,77.15,-23.48,2.893,50
29722,-143.9,82.3,-146.65,-19.12,77.15,-23.52,2.893,46
29736,-143.81,82.31,-146.61,-19.13,77.15,-23.56,2.893,44
29751,-143.78,82.3,-146.62,-19.17,77.14,-23.65,2.893,44
29765,-143.78,82.3,-146.62,-19.2,77.14,-23.71,2.893,48
29779,-143.79,82.3,-146.67,-19.2,77.14,-23.71,2.893,46
29793,-143.79,82.31,-146.73,-19.23,77.14,-23.76,2.893,48
29807,-143.77,82.32,-146.74,-19.26,77.14,-23.82,2.893,46
29822,-143.79,82.31,-146.78,-19.31,77.14,-23.9,2.893,47
29836,-143.79,82.31,-146.78,-19.38,77.13,-23.97,2.893,57
29850,-143.74,82.3,-146.76,-19.38,77.13,-23.97,2.898,53
29864,-143.67,82.29,-146.72,-19.44,77.13,-24.04,2.893,50
29878,-143.63,82.29,-146.7,-19.46,77.13,-24.06,2.898,48
29893,-143.61,82.29,-146.69,-19.48,77.13,-24.09,2.893,47
29907,-143.61,82.29,-146.69,-19.54,77.14,-24.14,2.898,46
29921,-143.53,82.29,-146.62,-19.54,77.14,-24.14,2.893,44
29935,-143.46,82.29,-146.54,-19.58,77.14,-24.16,2.893,49
29949,-143.43,82.29,-146.49,-19.61,77.14,-24.17,2.893,47
29964,-143.44,82.29,-146.48,-19.64,77.14,-24.16,2.898,52
29978,-143.44,82.29,-146.48,-19.71,77.15,-24.19,2.893,51
29992,-143.47,82.3,-146.48,-19.71,77.15,-24.19,2.893,55
30006,-143.51,82.3,-146.5,-19.74,77.15,-24.19,2.893,56
30020,-143.48,82.31,-146.46,-19.79,77.16,-24.21,2.893,52
30035,-143.51,82.32,-146.47,-19.83,77.17,-24.22,2.893,49
30049,-143.51,82.32,-146.47,-19.89,77.18,-24.27,2.893,47
30063,-143.58,82.33,-146.53,-19.89,77.18,-24.27,2.898,46
30077,-143.62,82.33,-146.59,-19.9,77.18,-24.29,2.893,44
30091,-143.79,82.32,-146.78,-19.87,77.2,-24.26,2.893,48
30105,-143.84,82.32,-146.81,-19.84,77.2,-24.23,2.893,46
30120,-143.84,82.32,-146.81,-19.84,77.2,-24.23,2.898,46
30133,-143.77,82.32,-146.72,-19.85,77.21,-24.21,2.898,44
30147,-143.76,82.32,-146.69,-19.82,77.22,-24.16,2.893,43
30162,-143.79,82.32,-146.68,-19.79,77.23,-24.09,2.893,41
30176,-143.77,82.32,-146.64,-19.8,77.23,-24.06,2.893,40
30191,-143.77,82.32,-146.64,-19.8,77.23,-24.06,2.893,38
30204,-143.76,82.32,-146.6,-19.8,77.23,-24.05,2.893,40
30218,-143.75,82.33,-146.56,-19.79,77.22,-24.03,2.893,40
30233,-143.74,82.34,-146.57,-19.8,77.22,-24.02,2.898,43
30247,-143.71,82.36,-146.55,-19.79,77.21,-24,2.898,43
30262,-143.71,82.36,-146.55,-19.79,77.21,-24,2.893,44
30275,-143.7,82.38,-146.55,-19.83,77.2,-24.03,2.889,48
30290,-143.67,82.39,-146.52,-19.84,77.2,-24.04,2.898,57
30304,-143.64,82.4,-146.5,-19.84,77.19,-24.05,2.893,51
30319,-143.6,82.42,-146.47,-19.87,77.17,-24.09,2.898,49
30333,-143.6,82.42,-146.47,-19.89,77.16,-24.12,2.893,46
30347,-143.56,82.42,-146.43,-19.89,77.16,-24.12,2.898,47
30361,-143.57,82.42,-146.47,-19.91,77.16,-24.15,2.898,47
30376,-143.65,82.42,-146.58,-19.9,77.15,-24.15,2.893,57
30390,-143.64,82.44,-146.57,-19.89,77.15,-24.14,2.893,56
30405,-143.57,82.46,-146.5,-19.88,77.14,-24.1,2.893,58
30419,-143.57,82.46,-146.5,-19.88,77.14,-24.1,2.898,56
30433,-143.52,82.46,-146.42,-19.89,77.14,-24.08,2.893,52
30447,-143.45,82.46,-146.33,-19.91,77.13,-24.05,2.893,50
30462,-143.44,82.46,-146.28,-19.92,77.12,-24.02,2.898,49
30476,-143.45,82.46,-146.26,-19.95,77.12,-24.01,2.893,46
30491,-143.45,82.46,-146.26,-19.95,77.12,-24.01,2.893,45
30504,-143.44,82.46,-146.22,-19.99,77.12,-24.01,2.893,52
30519,-143.45,82.46,-146.21,-20,77.12,-24,2.893,50
30533,-143.38,82.46,-146.13,-20.04,77.12,-24.04,2.893,49
30548,-143.38,82.46,-146.16,-20.03,77.12,-24.05,2.893,45
30562,-143.38,82.46,-146.16,-20.03,77.12,-24.05,2.893,46
30576,-143.44,82.45,-146.25,-20.01,77.13,-24.04,2.893,43
30590,-143.48,82.46,-146.32,-20,77.13,-24.07,2.898,45
30605,-143.51,82.45,-146.42,-20,77.14,-24.13,2.893,43
30619,-143.58,82.45,-146.55,-19.97,77.15,-24.16,2.898,45
30634,-143.58,82.45,-146.55,-19.97,77.15,-24.16,2.898,44
30647,-143.7,82.45,-146.72,-19.93,77.15,-24.17,2.893,44
30662,-143.75,82.45,-146.8,-19.93,77.16,-24.19,2.893,44
30676,-143.83,82.45,-146.87,-19.93,77.17,-24.17,2.893,42
30691,-143.9,82.44,-146.92,-19.94,77.18,-24.15,2.893,42
30705,-143.9,82.44,-146.92,-19.94,77.18,-24.15,2.893,40
30718,-143.93,82.43,-146.93,-19.96,77.19,-24.15,2.898,43
30733,-143.99,82.42,-146.98,-20,77.2,-24.18,2.893,42
30747,-144.03,82.41,-147.01,-20.01,77.21,-24.19,2.893,45
30762,-144.1,82.4,-147.07,-20,77.22,-24.18,2.893,42
30777,-144.1,82.4,-147.07,-20,77.22,-24.18,2.898,42
30790,-144.15,82.39,-147.13,-19.99,77.23,-24.16,2.893,42
30804,-144.23,82.38,-147.22,-20,77.24,-24.16,2.893,44
30819,-144.26,82.38,-147.26,-19.95,77.25,-24.1,2.893,42
30833,-144.33,82.39,-147.33,-19.9,77.25,-24.06,2.893,44
30848,-144.44,82.39,-147.45,-19.9,77.25,-24.06,2.893,42
30862,-144.44,82.39,-147.45,-19.87,77.26,-24.03,2.898,42
30876,-144.53,82.39,-147.55,-19.86,77.27,-24.02,2.893,44
30890,-144.67,82.37,-147.7,-19.85,77.27,-24.02,2.898,44
30905,-144.75,82.36,-147.8,-19.82,77.27,-24,2.893,48
30919,-144.86,82.36,-147.93,-19.82,77.27,-24,2.898,48
30933,-144.86,82.36,-147.93,-19.79,77.28,-23.98,2.898,46
30947,-145,82.36,-148.07,-19.78,77.29,-23.97,2.893,44
30962,-145.1,82.35,-148.19,-19.74,77.3,-23.93,2.898,45
30976,-145.14,82.34,-148.25,-19.7,77.31,-23.92,2.898,48
30991,-145.19,82.33,-148.34,-19.68,77.31,-23.91,2.898,48
31004,-145.19,82.33,-148.34,-19.68,77.31,-23.91,2.898,44
31017,-145.3,82.32,-148.47,-19.64,77.32,-23.89,2.898,45
31032,-145.38,82.31,-148.57,-19.59,77.33,-23.85,2.898,45
31046,-145.47,82.31,-148.69,-19.54,77.35,-23.82,2.898,46
31061,-145.6,82.31,-148.83,-19.54,77.35,-23.82,2.898,51
31075,-145.6,82.31,-148.83,-19.49,77.36,-23.76,2.898,49
31089,-145.7,82.3,-148.94,-19.46,77.38,-23.73,2.898,48
31103,-145.83,82.3,-149.07,-19.41,77.39,-23.66,2.898,49
31118,-145.91,82.29,-149.14,-19.38,77.4,-23.62,2.898,51
31132,-146.07,82.28,-149.28,-19.38,77.4,-23.62,2.893,50
31146,-146.07,82.28,-149.28,-19.35,77.41,-23.57,2.898,48
31160,-146.16,82.28,-149.37,-19.33,77.42,-23.54,2.898,46
31175,-146.23,82.27,-149.46,-19.29,77.43,-23.5,2.898,51
31189,-146.35,82.28,-149.61,-19.2,77.42,-23.42,2.898,49
31204,-146.49,82.29,-149.79,-19.13,77.43,-23.36,2.898,51
31219,-146.49,82.29,-149.79,-19.13,77.43,-23.36,2.898,50
31232,-146.6,82.3,-149.93,-19.1,77.43,-23.34,2.898,49
31247,-146.79,82.3,-150.13,-19.03,77.44,-23.3,2.898,46
31261,-146.94,82.3,-150.31,-18.99,77.44,-23.28,2.898,43
31276,-147.07,82.31,-150.47,-18.93,77.44,-23.21,2.898,42
31290,-147.07,82.31,-150.47,-18.93,77.44,-23.21,2.898,48
31304,-147.13,82.31,-150.53,-18.87,77.44,-23.16,2.893,45
31318,-147.17,82.32,-150.57,-18.85,77.43,-23.13,2.893,44
31333,-147.21,82.33,-150.61,-18.82,77.43,-23.1,2.898,44
31347,-147.25,82.33,-150.66,-18.8,77.44,-23.08,2.898,48
31362,-147.25,82.34,-150.65,-18.8,77.44,-23.08,2.898,49
31376,-147.25,82.34,-150.65,-18.75,77.44,-23.03,2.898,48
31390,-147.27,82.34,-150.65,-18.73,77.43,-22.98,2.898,47
31404,-147.25,82.35,-150.61,-18.73,77.42,-22.96,2.898,46
31419,-147.2,82.36,-150.55,-18.75,77.42,-22.97,2.898,46
31433,-147.26,82.36,-150.6,-18.75,77.42,-22.97,2.898,45
31447,-147.26,82.36,-150.6,-18.77,77.41,-22.98,2.898,44
31461,-147.22,82.36,-150.54,-18.79,77.4,-22.98,2.898,43
31476,-147.23,82.36,-150.54,-18.87,77.4,-23.05,2.898,42
31490,-147.17,82.36,-150.47,-18.91,77.4,-23.07,2.898,44
31505,-147.17,82.36,-150.48,-18.91,77.4,-23.07,2.903,43
31519,-147.17,82.36,-150.48,-18.94,77.4,-23.1,2.898,41
31533,-147.18,82.36,-150.47,-18.98,77.4,-23.13,2.898,42
31547,-147.24,82.35,-150.51,-19.02,77.41,-23.15,2.893,40
31562,-147.24,82.35,-150.48,-19.05,77.42,-23.15,2.898,44
31576,-147.24,82.35,-150.43,-19.05,77.42,-23.15,2.898,45
31590,-147.24,82.35,-150.43,-19.18,77.43,-23.25,2.898,49
31604,-147.38,82.31,-150.4,-19.39,77.45,-23.44,2.898,50
31619,-147.71,82.25,-150.49,-19.65,77.46,-23.66,2.898,52
31633,-148.01,82.2,-150.59,-19.9,77.48,-23.87,2.893,47
31648,-148.2,82.18,-150.61,-19.9,77.48,-23.87,2.898,46
31662,-148.2,82.18,-150.61,-20.11,77.48,-24.04,2.898,44
31676,-148.34,82.18,-150.65,-20.28,77.5,-24.18,2.898,42
31690,-148.46,82.16,-150.71,-20.43,77.51,-24.3,2.898,49
31705,-148.46,82.15,-150.68,-20.5,77.52,-24.35,2.898,47
31719,-148.43,82.15,-150.66,-20.5,77.52,-24.35,2.898,45
31733,-148.43,82.15,-150.66,-20.53,77.53,-24.39,2.898,45
31747,-148.44,82.15,-150.71,-20.54,77.54,-24.4,2.898,45
31762,-148.48,82.16,-150.78,-20.54,77.55,-24.42,2.898,46
31776,-148.48,82.16,-150.83,-20.51,77.55,-24.4,2.893,46
31791,-148.55,82.18,-150.94,-20.45,77.56,-24.35,2.898,44
31805,-148.52,82.18,-150.97,-20.45,77.56,-24.35,2.898,45
31819,-148.52,82.18,-150.97,-20.39,77.56,-24.3,2.898,42
31833,-148.5,82.18,-151,-20.32,77.56,-24.25,2.893,43
31848,-148.48,82.19,-151.03,-20.25,77.56,-24.19,2.898,45
31862,-148.51,82.22,-151.11,-20.17,77.56,-24.12,2.898,48
31877,-148.56,82.23,-151.22,-20.17,77.56,-24.12,2.898,47
31891,-148.56,82.23,-151.22,-20.11,77.56,-24.08,2.898,60
31905,-148.56,82.26,-151.3,-20.02,77.56,-24,2.898,58
31919,-148.56,82.28,-151.36,-19.92,77.55,-23.93,2.898,58
31934,-148.52,82.3,-151.39,-19.84,77.54,-23.87,2.898,54
31948,-148.52,82.3,-151.46,-19.84,77.54,-23.87,2.898,51
31962,-148.52,82.3,-151.46,-19.74,77.52,-23.8,2.898,48
31976,-148.54,82.31,-151.56,-19.64,77.51,-23.72,2.893,50
31991,-148.57,82.33,-151.63,-19.56,77.51,-23.66,2.898,46
32005,-148.55,82.35,-151.66,-19.51,77.5,-23.61,2.893,44
32020,-148.56,82.37,-151.71,-19.51,77.5,-23.61,2.898,43
32034,-148.56,82.37,-151.71,-19.45,77.48,-23.58,2.898,41
32048,-148.53,82.39,-151.72,-19.39,77.47,-23.53,2.903,42
32062,-148.5,82.39,-151.73,-19.34,77.46,-23.48,2.898,43
32077,-148.42,82.4,-151.68,-19.29,77.45,-23.42,2.898,43
32091,-148.36,82.42,-151.65,-19.29,77.45,-23.42,2.893,43
32150,-148.42,82.42,-151.74,-19.22,77.45,-23.36,2.898,45
32165,-148.44,82.43,-151.79,-19.16,77.44,-23.31,2.898,43
32179,-148.52,82.43,-151.9,-19.13,77.44,-23.29,2.893,51
32194,-148.46,82.45,-151.86,-19.11,77.43,-23.28,2.893,51
32208,-148.46,82.44,-151.88,-19.06,77.43,-23.23,2.893,47
32223,-148.44,82.45,-151.89,-19.02,77.43,-23.2,2.898,44
32237,-148.47,82.46,-151.94,-18.98,77.42,-23.16,2.898,42
32252,-148.53,82.47,-152.02,-18.95,77.42,-23.13,2.893,43
32267,-148.59,82.47,-152.09,-18.9,77.42,-23.09,2.893,48
32281,-148.57,82.47,-152.1,-18.87,77.42,-23.07,2.893,57
32296,-148.6,82.47,-152.14,-18.88,77.41,-23.08,2.898,54
32310,-148.67,82.47,-152.21,-18.86,77.41,-23.07,2.893,52
32325,-148.68,82.47,-152.23,-18.86,77.41,-23.07,2.898,51
32339,-148.69,82.47,-152.23,-18.85,77.41,-23.06,2.898,52
32354,-148.73,82.47,-152.27,-18.84,77.41,-23.05,2.893,55
32368,-148.73,82.47,-152.27,-18.82,77.41,-23.02,2.893,52
32382,-148.79,82.46,-152.32,-18.83,77.41,-23.01,2.893,48
32397,-148.77,82.46,-152.3,-18.87,77.42,-23.05,2.893,45
32411,-148.74,82.46,-152.28,-18.87,77.42,-23.05,2.893,45
32425,-148.81,82.46,-152.35,-18.86,77.42,-23.04,2.898,43
32440,-148.81,82.46,-152.35,-18.87,77.42,-23.03,2.898,42
32453,-148.83,82.45,-152.36,-18.87,77.42,-23.03,2.898,42
32468,-148.84,82.45,-152.36,-18.87,77.42,-23.01,2.898,45
32483,-148.81,82.44,-152.32,-18.87,77.42,-23.01,2.898,45
32496,-148.77,82.43,-152.28,-18.86,77.42,-23,2.898,54
32511,-148.77,82.43,-152.28,-18.84,77.42,-22.98,2.893,49
32525,-148.76,82.42,-152.27,-18.83,77.41,-22.97,2.898,51
32539,-148.75,82.42,-152.26,-18.84,77.41,-22.99,2.898,56
32554,-148.72,82.42,-152.23,-18.84,77.41,-22.99,2.898,61
32568,-148.71,82.41,-152.24,-18.85,77.42,-23.02,2.898,55
32582,-148.71,82.41,-152.24,-18.88,77.42,-23.1,2.898,50
32596,-148.72,82.4,-152.27,-18.89,77.42,-23.15,2.898,55
32611,-148.74,82.39,-152.32,-18.9,77.43,-23.19,2.898,59
32625,-148.76,82.38,-152.36,-18.9,77.43,-23.19,2.898,60
32639,-148.77,82.39,-152.38,-18.9,77.42,-23.21,2.898,57
32654,-148.77,82.39,-152.38,-18.98,77.43,-23.3,2.898,56
32668,-148.75,82.39,-152.36,-19.02,77.43,-23.32,2.898,53
32682,-148.8,82.38,-152.41,-19.02,77.44,-23.31,2.898,61
32697,-148.83,82.38,-152.44,-19.02,77.44,-23.31,2.898,60
32711,-148.76,82.38,-152.36,-19.06,77.44,-23.34,2.898,64
32725,-148.76,82.38,-152.36,-19.1,77.44,-23.37,2.898,62
32739,-148.73,82.38,-152.31,-19.12,77.44,-23.39,2.898,56
32754,-148.69,82.37,-152.28,-19.15,77.44,-23.43,2.898,54
32768,-148.7,82.37,-152.29,-19.15,77.44,-23.43,2.898,49
32782,-148.67,82.36,-152.27,-19.18,77.44,-23.45,2.898,56
32797,-148.69,82.35,-152.28,-19.22,77.45,-23.48,2.898,55
32811,-148.69,82.35,-152.28,-19.24,77.45,-23.49,2.898,54
32825,-148.6,82.35,-152.19,-19.22,77.45,-23.47,2.898,65
32840,-148.56,82.35,-152.17,-19.21,77.45,-23.48,2.898,61
32855,-148.53,82.35,-152.15,-19.21,77.45,-23.48,2.898,62
32869,-148.51,82.35,-152.15,-19.2,77.45,-23.49,2.898,58
32884,-148.51,82.35,-152.15,-19.18,77.45,-23.49,2.898,57
32898,-148.46,82.35,-152.11,-19.17,77.45,-23.5,2.898,54
32913,-148.48,82.34,-152.14,-19.16,77.45,-23.49,2.898,49
32928,-148.51,82.34,-152.19,-19.16,77.45,-23.49,2.898,51
32942,-148.52,82.34,-152.2,-19.15,77.45,-23.48,2.903,48
32957,-148.47,82.35,-152.17,-19.14,77.45,-23.47,2.898,46
32971,-148.47,82.35,-152.17,-19.14,77.45,-23.47,2.893,53
32985,-148.47,82.35,-152.18,-19.14,77.44,-23.48,2.898,48
33000,-148.5,82.35,-152.21,-19.16,77.44,-23.5,2.893,50
33015,-148.51,82.34,-152.21,-19.16,77.44,-23.5,2.898,48
33029,-148.46,82.34,-152.16,-19.16,77.43,-23.49,2.898,54
33044,-148.46,82.34,-152.16,-19.17,77.43,-23.48,2.898,56
33059,-148.38,82.34,-152.1,-19.15,77.42,-23.45,2.898,53
33073,-148.4,82.34,-152.13,-19.14,77.41,-23.45,2.898,55
33088,-148.39,82.35,-152.1,-19.14,77.41,-23.45,2.898,56
33102,-148.34,82.35,-152.05,-19.14,77.41,-23.45,2.893,59
33117,-148.32,82.35,-152.03,-19.16,77.4,-23.46,2.903,53
33132,-148.32,82.35,-152.03,-19.15,77.39,-23.45,2.893,50
33146,-148.28,82.34,-152,-19.16,77.38,-23.45,2.898,50
33161,-148.25,82.34,-151.97,-19.17,77.37,-23.45,2.898,58
33176,-148.2,82.34,-151.93,-19.17,77.37,-23.45,2.898,54
33190,-148.16,82.35,-151.89,-19.19,77.37,-23.46,2.898,51
33205,-148.12,82.34,-151.87,-19.18,77.37,-23.45,2.903,52
33220,-148.12,82.34,-151.87,-19.13,77.36,-23.4,2.898,49
33234,-148.14,82.34,-151.9,-19.12,77.36,-23.38,2.898,50
33249,-148.15,82.34,-151.92,-19.12,77.36,-23.38,2.903,53
33263,-148.17,82.34,-151.95,-19.07,77.35,-23.33,2.893,49
33278,-148.15,82.35,-151.93,-19.04,77.34,-23.29,2.898,59
33292,-148.15,82.35,-151.93,-19.04,77.34,-23.29,2.898,54
33307,-148.13,82.35,-151.92,-19.04,77.34,-23.29,2.898,53
33321,-148.1,82.35,-151.9,-19.03,77.34,-23.28,2.898,50
33336,-148.15,82.34,-151.94,-19.03,77.34,-23.28,2.893,50
33350,-148.17,82.34,-151.97,-19.02,77.34,-23.27,2.898,46
33365,-148.16,82.35,-151.96,-19.01,77.34,-23.27,2.898,45
33380,-148.16,82.35,-151.96,-18.98,77.33,-23.22,2.898,44
33394,-148.16,82.35,-151.97,-18.95,77.34,-23.18,2.898,48
33409,-148.17,82.36,-151.97,-18.93,77.34,-23.15,2.898,49
33424,-148.21,82.36,-151.99,-18.93,77.34,-23.15,2.903,47
33438,-148.21,82.37,-152,-18.93,77.34,-23.14,2.898,49
33453,-148.26,82.36,-152.06,-18.91,77.34,-23.11,2.898,45
33468,-148.26,82.36,-152.06,-18.91,77.34,-23.12,2.893,48
33482,-148.24,82.36,-152.03,-18.89,77.34,-23.09,2.898,49
33497,-148.17,82.37,-151.96,-18.89,77.34,-23.09,2.903,51
33511,-148.18,82.37,-151.98,-18.88,77.34,-23.07,2.898,49
33526,-148.19,82.37,-151.99,-18.87,77.34,-23.05,2.898,53
33541,-148.19,82.37,-152.01,-18.82,77.34,-23.02,2.898,50
33555,-148.19,82.37,-152.01,-18.79,77.34,-22.98,2.898,47
33570,-148.2,82.38,-152.02,-18.75,77.33,-22.95,2.898,52
33584,-148.21,82.38,-152.05,-18.75,77.33,-22.95,2.898,50
33599,-148.25,82.37,-152.1,-18.72,77.33,-22.93,2.898,49
33613,-148.32,82.37,-152.17,-18.71,77.33,-22.91,2.898,47
33628,-148.32,82.37,-152.17,-18.67,77.33,-22.88,2.898,45
33642,-148.34,82.38,-152.22,-18.66,77.33,-22.87,2.898,51
33657,-148.41,82.39,-152.29,-18.66,77.33,-22.87,2.898,48
33672,-148.46,82.39,-152.33,-18.65,77.32,-22.85,2.898,47
33686,-148.56,82.38,-152.44,-18.65,77.33,-22.86,2.898,44
33701,-148.59,82.38,-152.47,-18.67,77.33,-22.87,2.898,45
33716,-148.59,82.38,-152.47,-18.66,77.33,-22.86,2.898,45
33730,-148.6,82.37,-152.48,-18.66,77.33,-22.86,2.898,44
33745,-148.62,82.38,-152.51,-18.66,77.33,-22.86,2.898,42
33759,-148.65,82.39,-152.54,-18.66,77.33,-22.86,2.903,44
33774,-148.7,82.39,-152.59,-18.67,77.34,-22.87,2.898,46
33789,-148.72,82.38,-152.62,-18.68,77.35,-22.88,2.898,45
33804,-148.72,82.38,-152.62,-18.65,77.35,-22.84,2.898,44
33818,-148.73,82.39,-152.64,-18.64,77.35,-22.83,2.898,44
33833,-148.72,82.4,-152.64,-18.64,77.35,-22.83,2.903,49
33847,-148.7,82.4,-152.62,-18.6,77.35,-22.79,2.893,46
33862,-148.7,82.4,-152.63,-18.6,77.35,-22.78,2.898,44
33877,-148.7,82.4,-152.63,-18.58,77.35,-22.77,2.898,52
33891,-148.73,82.39,-152.67,-18.58,77.35,-22.76,2.898,48
33905,-148.7,82.4,-152.65,-18.58,77.35,-22.76,2.898,52
33920,-148.72,82.39,-152.66,-18.57,77.35,-22.75,2.898,51
33935,-148.77,82.39,-152.72,-18.59,77.36,-22.77,2.898,51
33949,-148.76,82.38,-152.71,-18.59,77.36,-22.77,2.898,48
33964,-148.76,82.38,-152.71,-18.58,77.37,-22.76,2.893,44
33979,-148.75,82.39,-152.71,-18.57,77.37,-22.74,2.898,46
33993,-148.75,82.39,-152.74,-18.57,77.37,-22.74,2.898,50
34008,-148.72,82.38,-152.72,-18.54,77.38,-22.72,2.898,49
34022,-148.69,82.37,-152.71,-18.48,77.38,-22.65,2.898,48
34037,-148.67,82.36,-152.7,-18.43,77.38,-22.59,2.898,45
34052,-148.67,82.36,-152.7,-18.36,77.38,-22.52,2.893,46
34066,-148.72,82.36,-152.75,-18.36,77.38,-22.52,2.898,45
34080,-148.78,82.36,-152.8,-18.28,77.39,-22.43,2.903,49
34095,-148.79,82.36,-152.84,-18.16,77.39,-22.32,2.898,47
34110,-148.79,82.37,-152.87,-18.07,77.38,-22.23,2.898,51
34125,-148.79,82.37,-152.87,-18,77.38,-22.16,2.898,46
34139,-148.81,82.37,-152.9,-17.95,77.37,-22.13,2.898,50
34154,-148.83,82.36,-152.97,-17.95,77.37,-22.13,2.898,48
34168,-148.88,82.37,-153.07,-17.9,77.37,-22.12,2.898,53
34183,-148.9,82.37,-153.12,-17.85,77.37,-22.1,2.898,49
34198,-148.9,82.39,-153.16,-17.81,77.36,-22.09,2.898,48
34212,-148.9,82.39,-153.16,-17.76,77.36,-22.07,2.898,46
34227,-148.98,82.39,-153.26,-17.76,77.36,-22.07,2.893,48
34241,-149.08,82.39,-153.37,-17.75,77.36,-22.08,2.898,46
34256,-149.17,82.39,-153.49,-17.76,77.36,-22.11,2.898,51
34270,-149.16,82.4,-153.49,-17.76,77.37,-22.13,2.898,48
34285,-149.14,82.41,-153.49,-17.81,77.37,-22.17,2.898,46
34300,-149.14,82.41,-153.49,-17.82,77.37,-22.2,2.898,49
34314,-149.13,82.42,-153.5,-17.82,77.37,-22.2,2.898,46
34328,-149.14,82.42,-153.54,-17.82,77.37,-22.19,2.898,43
34343,-149.17,82.42,-153.57,-17.81,77.37,-22.19,2.898,42
34358,-149.15,82.42,-153.55,-17.81,77.37,-22.2,2.898,44
34373,-149.15,82.42,-153.55,-17.82,77.38,-22.2,2.898,49
34387,-149.12,82.43,-153.53,-17.83,77.38,-22.22,2.898,45
34402,-149.13,82.45,-153.54,-17.83,77.38,-22.22,2.898,44
34416,-149.12,82.45,-153.52,-17.83,77.38,-22.22,2.898,42
34431,-149.08,82.46,-153.49,-17.83,77.37,-22.22,2.898,43
34446,-149.06,82.46,-153.47,-17.82,77.37,-22.2,2.898,52
34460,-149.06,82.46,-153.47,-17.79,77.36,-22.17,2.898,50
34475,-149.01,82.47,-153.43,-17.79,77.36,-22.17,2.898,51
34489,-149.05,82.48,-153.47,-17.75,77.35,-22.14,2.898,48
34504,-149.05,82.47,-153.47,-17.72,77.35,-22.1,2.898,47
34518,-149.06,82.47,-153.48,-17.69,77.34,-22.07,2.898,47
