TimeStamp,Roll1,Pitch1,Yaw1,Roll2,Pitch2,Yaw2,FRS,EMG1
3697,0.42,0.47,-0.28,0,0,0,2.312,58
3711,1.08,0.87,-0.56,-0.02,0.26,0.03,2.312,70
3726,1.48,0.96,-0.87,-0.04,0.52,0.07,2.312,60
3741,1.5,1.05,-1.16,-0.05,0.78,0.1,2.317,58
3756,1.48,1.31,-1.35,-0.04,1.03,0.12,2.317,56
3770,1.58,1.71,-1.51,-0.04,1.03,0.12,2.317,52
3784,1.82,2.1,-1.61,-0.01,1.27,0.15,2.317,48
3799,2.08,2.48,-1.66,0.02,1.5,0.17,2.317,50
3814,2.28,2.77,-1.64,0.04,1.75,0.19,2.317,55
3829,2.29,3,-1.59,0.06,1.99,0.21,2.322,51
3843,2.15,3.25,-1.57,0.08,2.23,0.23,2.317,54
3858,1.9,3.54,-1.6,0.08,2.23,0.23,2.317,48
3872,1.58,3.82,-1.67,0.1,2.47,0.25,2.317,44
3887,1.21,4.13,-1.76,0.13,2.71,0.26,2.312,42
3901,0.83,4.47,-1.87,0.17,2.94,0.27,2.312,41
3916,0.47,4.82,-1.98,0.21,3.17,0.29,2.312,39
3931,0.12,5.17,-2.07,0.21,3.17,0.29,2.312,39
3945,-0.16,5.49,-2.12,0.26,3.4,0.3,2.317,41
3960,-0.34,5.78,-2.15,0.29,3.62,0.31,2.312,50
3974,-0.47,6.08,-2.16,0.34,3.83,0.32,2.312,46
3989,-0.58,6.4,-2.19,0.39,4.05,0.34,2.312,43
4004,-0.72,6.72,-2.26,0.44,4.27,0.36,2.312,41
4018,-0.92,7.09,-2.36,0.44,4.27,0.36,2.312,39
4033,-1.1,7.39,-2.44,0.49,4.48,0.38,2.312,39
4047,-1.31,7.68,-2.49,0.55,4.69,0.39,2.312,38
4062,-1.55,8,-2.54,0.6,4.91,0.42,2.312,38
4077,-1.79,8.34,-2.59,0.65,5.13,0.44,2.317,38
4091,-2.01,8.61,-2.62,0.72,5.35,0.46,2.317,36
4106,-2.17,8.85,-2.6,0.72,5.35,0.46,2.322,36
4120,-2.31,9.13,-2.57,0.8,5.57,0.48,2.322,37
4135,-2.39,9.41,-2.54,0.88,5.78,0.51,2.326,36
4150,-2.44,9.66,-2.51,0.98,6.01,0.53,2.331,37
4164,-2.49,9.93,-2.48,1.09,6.22,0.54,2.331,36
4179,-2.53,10.23,-2.49,1.09,6.22,0.54,2.336,38
4193,-2.56,10.53,-2.51,1.22,6.42,0.56,2.336,38
4208,-2.6,10.79,-2.51,1.34,6.62,0.58,2.336,37
4222,-2.68,11.06,-2.52,1.44,6.82,0.59,2.341,40
4237,-2.8,11.34,-2.53,1.51,7.02,0.61,2.341,39
4252,-2.93,11.63,-2.55,1.55,7.24,0.63,2.341,38
4267,-3.06,11.89,-2.56,1.55,7.24,0.63,2.346,38
4281,-3.19,12.15,-2.59,1.57,7.44,0.64,2.346,37
4295,-3.37,12.43,-2.63,1.55,7.66,0.65,2.346,37
4310,-3.53,12.7,-2.67,1.48,7.88,0.67,2.346,37
4325,-3.64,12.94,-2.69,1.41,8.1,0.68,2.351,36
4339,-3.73,13.17,-2.69,1.41,8.1,0.68,2.351,36
4354,-3.81,13.4,-2.69,1.34,8.32,0.68,2.351,36
4368,-3.89,13.66,-2.69,1.29,8.53,0.67,2.351,37
4383,-3.97,13.89,-2.66,1.25,8.74,0.67,2.351,36
4398,-4.06,14.12,-2.61,1.22,8.95,0.66,2.356,36
4412,-4.18,14.35,-2.58,1.2,9.15,0.65,2.361,36
4427,-4.31,14.61,-2.55,1.2,9.15,0.65,2.361,38
4441,-4.42,14.83,-2.52,1.2,9.36,0.64,2.361,37
4456,-4.52,15.02,-2.46,1.21,9.55,0.63,2.361,37
4470,-4.62,15.23,-2.4,1.25,9.75,0.61,2.366,36
4485,-4.69,15.47,-2.34,1.29,9.94,0.6,2.366,37
4500,-4.72,15.69,-2.28,1.29,9.94,0.6,2.361,37
4514,-4.76,15.91,-2.21,1.35,10.12,0.59,2.361,37
4529,-4.81,16.13,-2.15,1.4,10.31,0.57,2.366,36
4544,-4.86,16.38,-2.13,1.46,10.5,0.55,2.366,36
4559,-4.88,16.63,-2.12,1.53,10.69,0.54,2.366,38
4574,-4.87,16.87,-2.11,1.59,10.88,0.54,2.366,40
4588,-4.89,17.09,-2.1,1.59,10.88,0.54,2.366,39
4603,-4.94,17.32,-2.1,1.65,11.08,0.54,2.361,38
4617,-5,17.54,-2.12,1.69,11.28,0.55,2.366,37
4632,-5.08,17.76,-2.15,1.74,11.48,0.56,2.366,36
4647,-5.16,17.99,-2.2,1.8,11.66,0.58,2.366,36
4662,-5.24,18.23,-2.27,1.88,11.84,0.6,2.366,36
4677,-5.31,18.45,-2.32,1.88,11.84,0.6,2.366,37
4691,-5.38,18.68,-2.38,1.97,12.02,0.62,2.37,36
4706,-5.44,18.9,-2.44,2.05,12.2,0.65,2.361,39
4721,-5.5,19.12,-2.49,2.13,12.38,0.67,2.37,38
4735,-5.56,19.33,-2.54,2.21,12.56,0.7,2.361,38
4750,-5.63,19.54,-2.59,2.28,12.75,0.72,2.361,37
4765,-5.69,19.76,-2.63,2.28,12.75,0.72,2.361,38
4779,-5.73,19.97,-2.65,2.34,12.93,0.74,2.361,36
4794,-5.73,20.18,-2.63,2.39,13.12,0.76,2.361,37
4809,-5.73,20.38,-2.59,2.45,13.32,0.77,2.366,37
4824,-5.71,20.57,-2.54,2.5,13.51,0.77,2.366,38
4839,-5.64,20.79,-2.46,2.53,13.7,0.78,2.366,38
4853,-5.52,20.99,-2.35,2.53,13.7,0.78,2.366,38
4867,-5.38,21.19,-2.22,2.54,13.9,0.78,2.361,36
4882,-5.23,21.41,-2.11,2.54,14.11,0.79,2.366,36
4897,-5.06,21.65,-2.02,2.54,14.32,0.79,2.366,36
4912,-4.86,21.91,-1.94,2.53,14.52,0.79,2.366,37
4927,-4.7,22.15,-1.88,2.53,14.52,0.79,2.366,38
4941,-4.59,22.37,-1.83,2.5,14.74,0.79,2.366,41
4956,-4.55,22.56,-1.78,2.49,14.95,0.79,2.366,41
4970,-4.57,22.75,-1.76,2.49,15.17,0.78,2.37,43
4985,-4.64,22.95,-1.76,2.49,15.38,0.78,2.366,44
5000,-4.77,23.11,-1.76,2.5,15.59,0.77,2.366,43
5022,-4.95,23.27,-1.77,2.48,15.81,0.77,2.366,41
5037,-5.15,23.43,-1.81,2.47,16.03,0.77,2.366,40
5053,-5.31,23.59,-1.83,2.45,16.25,0.76,2.37,39
5069,-5.45,23.75,-1.85,2.45,16.25,0.76,2.366,37
5084,-5.55,23.91,-1.87,2.43,16.47,0.76,2.37,37
5100,-5.64,24.07,-1.86,2.41,16.69,0.75,2.366,39
5116,-5.68,24.21,-1.85,2.39,16.91,0.75,2.37,38
5131,-5.69,24.38,-1.84,2.38,17.13,0.74,2.37,37
5147,-5.7,24.58,-1.83,2.37,17.35,0.74,2.366,37
5163,-5.7,24.79,-1.84,2.36,17.56,0.74,2.37,36
5179,-5.67,25,-1.85,2.36,17.77,0.73,2.366,36
5193,-5.63,25.21,-1.86,2.36,17.77,0.73,2.366,36
5207,-5.61,25.43,-1.88,2.35,17.99,0.73,2.37,36
5222,-5.59,25.65,-1.9,2.36,18.2,0.74,2.366,36
5236,-5.57,25.86,-1.92,2.37,18.4,0.74,2.366,36
5251,-5.56,26.07,-1.93,2.39,18.61,0.74,2.366,36
5265,-5.56,26.26,-1.93,2.42,18.81,0.74,2.366,37
5280,-5.56,26.46,-1.94,2.42,18.81,0.74,2.37,36
5294,-5.56,26.65,-1.95,2.45,19.01,0.76,2.366,38
5308,-5.54,26.86,-1.96,2.48,19.2,0.77,2.366,37
5323,-5.48,27.06,-1.97,2.51,19.4,0.78,2.366,36
5338,-5.43,27.29,-1.98,2.54,19.6,0.79,2.366,36
5352,-5.38,27.51,-1.99,2.54,19.6,0.79,2.366,37
5366,-5.35,27.72,-2,2.57,19.79,0.81,2.361,36
5381,-5.33,27.92,-2.01,2.6,19.99,0.82,2.366,37
5395,-5.33,28.15,-2.03,2.63,20.19,0.83,2.366,39
5410,-5.32,28.35,-2.04,2.67,20.39,0.85,2.361,40
5424,-5.31,28.53,-2.04,2.67,20.39,0.85,2.366,37
5438,-5.29,28.73,-2.04,2.7,20.59,0.86,2.366,38
5453,-5.26,28.91,-2.03,2.73,20.78,0.86,2.361,36
5511,-5.26,29.07,-2.01,2.78,20.97,0.87,2.361,37
5526,-5.31,29.26,-2,2.83,21.15,0.87,2.366,37
5540,-5.39,29.45,-2.01,2.89,21.33,0.87,2.361,36
5555,-5.48,29.62,-2.04,2.93,21.51,0.88,2.366,36
5569,-5.58,29.81,-2.07,2.97,21.7,0.89,2.366,36
5584,-5.68,29.99,-2.11,3,21.88,0.89,2.366,37
5598,-5.8,30.17,-2.15,3.03,22.07,0.9,2.366,38
5613,-5.89,30.37,-2.19,3.05,22.25,0.9,2.366,37
5627,-5.98,30.57,-2.23,3.08,22.44,0.9,2.366,37
5641,-6.08,30.77,-2.28,3.1,22.63,0.9,2.366,36
5656,-6.2,30.95,-2.32,3.12,22.82,0.91,2.366,37
5670,-6.35,31.14,-2.38,3.16,23,0.91,2.366,36
5685,-6.49,31.32,-2.43,3.2,23.19,0.91,2.366,38
5699,-6.64,31.51,-2.49,3.23,23.37,0.91,2.366,36
5714,-6.77,31.69,-2.55,3.26,23.55,0.91,2.366,37
5728,-6.9,31.87,-2.61,3.27,23.74,0.92,2.366,37
5743,-7.02,32.06,-2.67,3.27,23.74,0.92,2.37,37
5756,-7.14,32.25,-2.74,3.29,23.93,0.92,2.366,36
5771,-7.25,32.43,-2.81,3.31,24.11,0.93,2.366,36
5785,-7.37,32.63,-2.87,3.33,24.29,0.93,2.366,38
5800,-7.46,32.8,-2.92,3.35,24.47,0.93,2.366,37
5814,-7.56,32.98,-2.98,3.35,24.47,0.93,2.366,36
5828,-7.66,33.18,-3.04,3.38,24.65,0.94,2.366,36
5842,-7.75,33.39,-3.13,3.42,24.83,0.95,2.37,36
5857,-7.81,33.59,-3.21,3.45,25.01,0.96,2.366,36
5871,-7.88,33.78,-3.28,3.47,25.19,0.97,2.366,35
5886,-7.96,33.98,-3.36,3.47,25.19,0.97,2.37,36
5900,-8.05,34.18,-3.44,3.5,25.37,0.98,2.366,36
5914,-8.14,34.39,-3.51,3.52,25.55,0.98,2.366,37
5929,-8.2,34.59,-3.57,3.54,25.73,0.99,2.366,36
5943,-8.27,34.78,-3.62,3.57,25.9,0.99,2.366,36
5957,-8.32,34.98,-3.67,3.57,25.9,0.99,2.366,36
5971,-8.36,35.17,-3.7,3.59,26.08,1,2.366,36
5986,-8.38,35.36,-3.72,3.6,26.25,1,2.366,36
6000,-8.41,35.55,-3.76,3.63,26.43,1.01,2.361,36
6015,-8.43,35.76,-3.8,3.65,26.6,1.01,2.366,37
6029,-8.44,35.95,-3.83,3.65,26.6,1.01,2.366,36
6043,-8.45,36.14,-3.87,3.67,26.77,1.02,2.366,36
6057,-8.45,36.33,-3.9,3.69,26.94,1.02,2.366,36
6072,-8.48,36.51,-3.93,3.71,27.11,1.03,2.361,36
6086,-8.5,36.7,-3.95,3.74,27.28,1.03,2.361,37
6101,-8.54,36.89,-3.99,3.76,27.45,1.04,2.366,36
6115,-8.59,37.08,-4.01,3.76,27.45,1.04,2.361,37
6129,-8.63,37.26,-4.05,3.78,27.62,1.03,2.361,36
6143,-8.67,37.44,-4.07,3.8,27.79,1.03,2.361,36
6158,-8.7,37.62,-4.1,3.81,27.96,1.03,2.366,36
6172,-8.73,37.8,-4.12,3.83,28.14,1.03,2.361,38
6187,-8.75,37.98,-4.16,3.83,28.14,1.03,2.366,35
6200,-8.76,38.17,-4.18,3.84,28.31,1.04,2.366,36
6215,-8.8,38.36,-4.21,3.84,28.49,1.04,2.366,36
6229,-8.83,38.53,-4.24,3.86,28.67,1.03,2.366,36
6244,-8.89,38.7,-4.28,3.88,28.84,1.03,2.361,36
6258,-8.95,38.87,-4.33,3.88,28.84,1.03,2.366,37
6272,-9,39.06,-4.38,3.91,29.01,1.03,2.366,38
6286,-9.05,39.23,-4.42,3.93,29.18,1.03,2.361,38
6301,-9.1,39.41,-4.46,3.93,29.35,1.03,2.366,37
6315,-9.15,39.59,-4.5,3.94,29.52,1.03,2.361,36
6330,-9.2,39.78,-4.54,3.94,29.52,1.03,2.366,36
6344,-9.24,39.95,-4.58,3.96,29.69,1.04,2.366,37
6359,-9.29,40.11,-4.62,3.97,29.87,1.04,2.366,36
6373,-9.35,40.29,-4.68,3.99,30.03,1.04,2.366,36
6388,-9.42,40.47,-4.73,4.02,30.2,1.06,2.366,37
6402,-9.48,40.63,-4.78,4.02,30.2,1.06,2.366,36
6416,-9.55,40.8,-4.83,4.05,30.37,1.06,2.366,36
6431,-9.6,40.96,-4.88,4.09,30.53,1.07,2.366,36
6446,-9.67,41.12,-4.93,4.13,30.69,1.07,2.366,36
6460,-9.73,41.3,-4.98,4.18,30.85,1.08,2.366,35
6475,-9.8,41.47,-5.05,4.23,31.01,1.08,2.366,37
6489,-9.87,41.64,-5.1,4.23,31.01,1.08,2.366,37
6503,-9.93,41.8,-5.15,4.28,31.16,1.09,2.361,37
6518,-9.98,41.97,-5.2,4.32,31.32,1.11,2.366,37
6532,-10.03,42.13,-5.23,4.35,31.47,1.12,2.361,36
6547,-10.1,42.31,-5.28,4.39,31.63,1.13,2.366,36
6561,-10.16,42.47,-5.33,4.39,31.63,1.13,2.356,36
6575,-10.22,42.64,-5.37,4.44,31.79,1.14,2.361,36
6590,-10.3,42.8,-5.42,4.49,31.94,1.16,2.366,37
6604,-10.36,42.96,-5.47,4.52,32.09,1.17,2.366,37
6619,-10.42,43.13,-5.51,4.54,32.25,1.19,2.361,36
6634,-10.48,43.28,-5.56,4.54,32.25,1.19,2.361,36
6648,-10.53,43.44,-5.61,4.57,32.4,1.2,2.361,36
6662,-10.58,43.6,-5.66,4.59,32.56,1.2,2.366,36
6677,-10.66,43.76,-5.71,4.62,32.72,1.21,2.366,37
6691,-10.73,43.92,-5.77,4.64,32.89,1.22,2.366,40
6706,-10.81,44.08,-5.84,4.65,33.05,1.23,2.361,39
6720,-10.89,44.23,-5.89,4.65,33.05,1.23,2.366,39
6734,-10.98,44.39,-5.95,4.66,33.22,1.23,2.366,40
6749,-11.05,44.56,-6.01,4.68,33.38,1.23,2.366,40
6764,-11.1,44.72,-6.05,4.71,33.54,1.23,2.366,41
6778,-11.14,44.87,-6.1,4.72,33.71,1.24,2.366,39
6793,-11.17,45.04,-6.14,4.72,33.71,1.24,2.366,39
6807,-11.2,45.2,-6.18,4.74,33.87,1.25,2.366,38
6821,-11.23,45.36,-6.23,4.75,34.03,1.25,2.361,37
6836,-11.24,45.52,-6.27,4.76,34.19,1.25,2.366,37
6850,-11.27,45.69,-6.32,4.78,34.35,1.26,2.366,37
6865,-11.29,45.86,-6.35,4.78,34.35,1.26,2.366,36
6879,-11.33,46.02,-6.39,4.8,34.51,1.26,2.366,37
6893,-11.37,46.18,-6.44,4.82,34.67,1.27,2.366,37
6908,-11.41,46.34,-6.48,4.83,34.83,1.26,2.366,37
6922,-11.45,46.51,-6.54,4.84,34.99,1.25,2.366,37
6937,-11.5,46.68,-6.59,4.86,35.14,1.25,2.361,38
6952,-11.55,46.82,-6.63,4.86,35.14,1.25,2.361,40
6966,-11.62,46.97,-6.69,4.86,35.31,1.24,2.361,39
6980,-11.69,47.12,-6.75,4.87,35.47,1.23,2.361,38
6995,-11.76,47.28,-6.8,4.86,35.62,1.22,2.361,38
7009,-11.84,47.43,-6.86,4.87,35.78,1.21,2.361,40
7024,-11.93,47.58,-6.92,4.87,35.78,1.21,2.366,38
7038,-11.99,47.73,-6.97,4.88,35.93,1.2,2.361,37
7052,-12.06,47.88,-7.02,4.89,36.09,1.18,2.366,36
7067,-12.13,48.03,-7.09,4.91,36.24,1.16,2.366,36
7081,-12.21,48.19,-7.16,4.92,36.39,1.16,2.361,37
7096,-12.3,48.33,-7.21,4.92,36.39,1.16,2.366,38
7110,-12.4,48.49,-7.28,4.94,36.54,1.16,2.361,38
7124,-12.49,48.64,-7.36,4.97,36.68,1.15,2.361,36
7139,-12.57,48.8,-7.44,5.01,36.83,1.14,2.361,36
7154,-12.65,48.94,-7.52,5.04,36.97,1.14,2.366,36
7168,-12.74,49.09,-7.61,5.06,37.11,1.13,2.366,37
7183,-12.85,49.24,-7.71,5.06,37.11,1.13,2.366,37
7197,-12.94,49.38,-7.81,5.06,37.26,1.13,2.361,37
7211,-13.06,49.52,-7.89,5.07,37.4,1.13,2.361,36
7226,-13.18,49.67,-7.99,5.08,37.55,1.12,2.361,38
7240,-13.27,49.82,-8.08,5.09,37.69,1.12,2.361,37
7255,-13.27,49.82,-8.08,5.09,37.69,1.12,2.361,37
7268,-13.38,49.96,-8.17,5.09,37.84,1.11,2.361,36
7283,-13.48,50.11,-8.26,5.09,37.99,1.11,2.361,36
7298,-13.58,50.24,-8.35,5.1,38.13,1.11,2.361,36
7312,-13.67,50.38,-8.43,5.12,38.27,1.11,2.361,36
7327,-13.75,50.53,-8.51,5.12,38.27,1.11,2.361,37
7341,-13.82,50.67,-8.59,5.15,38.4,1.12,2.361,37
7355,-13.87,50.82,-8.65,5.17,38.54,1.11,2.356,37
7370,-13.92,50.97,-8.73,5.21,38.69,1.12,2.356,37
7384,-13.98,51.12,-8.81,5.24,38.82,1.13,2.361,37
7399,-14.04,51.27,-8.89,5.28,38.95,1.13,2.356,38
7414,-14.13,51.41,-8.97,5.28,38.95,1.13,2.356,42
7427,-14.22,51.55,-9.06,5.33,39.09,1.14,2.356,40
7442,-14.31,51.68,-9.14,5.39,39.23,1.15,2.356,39
7457,-14.41,51.82,-9.23,5.44,39.36,1.16,2.356,38
7471,-14.53,51.96,-9.33,5.51,39.49,1.16,2.361,37
7486,-14.63,52.07,-9.41,5.51,39.49,1.16,2.356,38
7500,-14.73,52.18,-9.48,5.58,39.61,1.17,2.356,37
7514,-14.85,52.3,-9.58,5.65,39.74,1.19,2.351,36
7529,-14.94,52.44,-9.68,5.71,39.86,1.2,2.351,38
7543,-15.02,52.58,-9.78,5.77,39.99,1.21,2.356,37
7558,-15.11,52.71,-9.87,5.77,39.99,1.21,2.351,37
7572,-15.19,52.86,-9.95,5.82,40.12,1.23,2.351,36
7586,-15.24,53.01,-10.02,5.86,40.25,1.25,2.351,36
7601,-15.29,53.14,-10.08,5.91,40.38,1.26,2.351,36
7616,-15.33,53.29,-10.14,5.94,40.52,1.28,2.351,35
7630,-15.36,53.44,-10.2,5.97,40.65,1.28,2.351,35
7645,-15.37,53.58,-10.25,5.97,40.65,1.28,2.351,36
7659,-15.38,53.74,-10.3,6,40.77,1.29,2.351,35
7673,-15.36,53.88,-10.35,6.05,40.9,1.3,2.351,35
7688,-15.35,54.02,-10.39,6.1,41.03,1.32,2.351,34
7702,-15.36,54.17,-10.45,6.14,41.16,1.33,2.351,35
7717,-15.4,54.31,-10.53,6.14,41.16,1.33,2.351,36
7731,-15.46,54.46,-10.61,6.17,41.29,1.33,2.356,36
7745,-15.51,54.59,-10.69,6.22,41.42,1.35,2.351,35
7760,-15.6,54.72,-10.77,6.27,41.55,1.36,2.351,39
7774,-15.69,54.86,-10.86,6.31,41.68,1.36,2.351,38
7789,-15.76,55,-10.94,6.31,41.68,1.36,2.351,37
7803,-15.82,55.13,-11.01,6.36,41.8,1.38,2.351,37
7818,-15.86,55.27,-11.08,6.4,41.93,1.4,2.356,37
7832,-15.9,55.41,-11.14,6.42,42.06,1.4,2.351,36
7847,-15.94,55.54,-11.2,6.45,42.2,1.41,2.351,36
7861,-16,55.67,-11.27,6.47,42.32,1.42,2.351,35
7876,-16.04,55.8,-11.32,6.47,42.32,1.42,2.351,36
7890,-16.08,55.93,-11.38,6.49,42.45,1.44,2.351,37
7904,-16.13,56.07,-11.45,6.51,42.58,1.45,2.356,36
7919,-16.17,56.19,-11.51,6.53,42.7,1.46,2.356,36
7934,-16.23,56.31,-11.57,6.56,42.82,1.47,2.351,35
7948,-16.28,56.42,-11.62,6.56,42.82,1.47,2.351,35
7962,-16.34,56.54,-11.67,6.59,42.94,1.49,2.351,37
7977,-16.42,56.67,-11.74,6.6,43.07,1.5,2.356,37
7991,-16.48,56.79,-11.8,6.62,43.19,1.52,2.351,35
8006,-16.55,56.9,-11.86,6.64,43.32,1.53,2.351,36
8020,-16.64,57.03,-11.94,6.64,43.32,1.53,2.356,37
8034,-16.74,57.14,-12.03,6.67,43.45,1.54,2.351,37
8049,-16.82,57.26,-12.09,6.68,43.58,1.56,2.356,36
8063,-16.92,57.37,-12.17,6.7,43.7,1.56,2.356,36
8078,-17.02,57.5,-12.24,6.72,43.83,1.57,2.356,36
8092,-17.11,57.61,-12.31,6.74,43.95,1.58,2.351,35
8107,-17.19,57.73,-12.38,6.74,43.95,1.58,2.351,36
8121,-17.27,57.83,-12.45,6.76,44.08,1.59,2.356,37
8135,-17.36,57.95,-12.53,6.79,44.2,1.61,2.351,36
8150,-17.45,58.07,-12.61,6.81,44.33,1.61,2.351,36
8165,-17.52,58.19,-12.67,6.84,44.45,1.62,2.351,36
8230,-17.58,58.31,-12.73,6.87,44.57,1.64,2.356,38
8244,-17.66,58.43,-12.79,6.91,44.68,1.66,2.351,38
8259,-17.74,58.54,-12.87,6.94,44.8,1.68,2.351,38
8273,-17.83,58.66,-12.95,6.98,44.91,1.71,2.351,38
8288,-17.9,58.78,-13.02,7.01,45.02,1.73,2.351,37
8302,-17.97,58.9,-13.09,7.03,45.14,1.75,2.356,37
8317,-18.06,59.01,-13.17,7.06,45.26,1.79,2.356,37
8331,-18.15,59.13,-13.25,7.08,45.38,1.81,2.351,37
8346,-18.24,59.25,-13.32,7.11,45.49,1.83,2.356,37
8360,-18.31,59.37,-13.39,7.14,45.62,1.84,2.356,37
8374,-18.4,59.48,-13.46,7.17,45.73,1.85,2.356,36
8389,-18.48,59.59,-13.52,7.21,45.85,1.86,2.356,37
8403,-18.54,59.7,-13.58,7.24,45.97,1.86,2.351,37
8418,-18.58,59.81,-13.61,7.26,46.08,1.87,2.356,36
8432,-18.61,59.92,-13.65,7.28,46.19,1.88,2.356,36
8447,-18.66,60.03,-13.71,7.28,46.19,1.88,2.356,37
8460,-18.71,60.14,-13.78,7.3,46.3,1.88,2.356,37
8475,-18.8,60.24,-13.88,7.31,46.42,1.89,2.351,37
8489,-18.9,60.35,-13.97,7.31,46.53,1.9,2.356,37
8504,-19,60.45,-14.07,7.3,46.65,1.91,2.356,37
8518,-19.12,60.54,-14.18,7.3,46.65,1.91,2.356,37
8532,-19.27,60.63,-14.29,7.29,46.77,1.91,2.356,37
8547,-19.44,60.73,-14.42,7.28,46.9,1.91,2.356,35
8561,-19.64,60.82,-14.56,7.28,47.02,1.92,2.356,37
8575,-19.81,60.92,-14.69,7.29,47.14,1.93,2.356,38
8590,-19.98,61.01,-14.82,7.31,47.27,1.94,2.356,37
8604,-20.14,61.1,-14.95,7.31,47.27,1.94,2.356,36
8618,-20.24,61.2,-15.04,7.32,47.39,1.93,2.351,37
8633,-20.36,61.29,-15.15,7.34,47.52,1.92,2.356,36
8647,-20.49,61.41,-15.27,7.36,47.64,1.92,2.356,36
8661,-20.6,61.52,-15.4,7.37,47.76,1.93,2.356,36
8676,-20.71,61.63,-15.5,7.37,47.76,1.93,2.356,37
8690,-20.78,61.73,-15.58,7.39,47.88,1.94,2.356,38
8704,-20.89,61.84,-15.67,7.41,48.01,1.95,2.356,38
8719,-21.02,61.96,-15.77,7.43,48.12,1.95,2.356,37
8733,-21.14,62.08,-15.89,7.45,48.24,1.97,2.356,37
8747,-21.24,62.18,-15.98,7.45,48.24,1.97,2.356,37
8761,-21.35,62.3,-16.07,7.47,48.36,1.99,2.356,36
8776,-21.35,62.3,-16.07,7.49,48.48,2.01,2.356,35
8790,-21.51,62.42,-16.19,7.51,48.61,2.03,2.356,36
8804,-21.66,62.54,-16.31,7.53,48.73,2.04,2.356,36
8818,-21.77,62.63,-16.4,7.53,48.73,2.04,2.361,38
8832,-21.88,62.74,-16.48,7.54,48.86,2.06,2.356,38
8847,-21.88,62.74,-16.48,7.55,48.98,2.07,2.361,37
8861,-21.99,62.85,-16.56,7.57,49.1,2.09,2.361,36
8875,-22.1,62.95,-16.64,7.58,49.23,2.1,2.356,35
8889,-22.22,63.06,-16.72,7.58,49.23,2.1,2.356,36
8903,-22.29,63.16,-16.8,7.59,49.35,2.1,2.356,35
8918,-22.29,63.16,-16.8,7.61,49.47,2.11,2.361,37
8932,-22.37,63.26,-16.87,7.63,49.59,2.12,2.361,37
8946,-22.48,63.36,-16.97,7.65,49.7,2.13,2.361,38
8960,-22.58,63.47,-17.06,7.65,49.7,2.13,2.361,37
8974,-22.68,63.56,-17.14,7.66,49.82,2.15,2.361,36
8989,-22.68,63.56,-17.14,7.67,49.93,2.16,2.361,37
9002,-22.78,63.66,-17.23,7.69,50.04,2.17,2.361,36
9017,-22.89,63.77,-17.33,7.73,50.16,2.19,2.361,36
9031,-23.01,63.87,-17.45,7.73,50.16,2.19,2.361,36
9045,-23.12,63.97,-17.55,7.76,50.26,2.2,2.366,37
9060,-23.12,63.97,-17.55,7.8,50.36,2.23,2.361,37
9074,-23.19,64.06,-17.62,7.84,50.47,2.26,2.361,36
9088,-23.27,64.15,-17.71,7.89,50.57,2.27,2.361,37
9103,-23.33,64.26,-17.8,7.89,50.57,2.27,2.366,38
9117,-23.42,64.37,-17.9,7.94,50.66,2.28,2.361,38
9132,-23.42,64.37,-17.9,7.99,50.75,2.31,2.361,37
9146,-23.47,64.45,-17.97,8.02,50.84,2.32,2.361,37
9160,-23.53,64.54,-18.05,8.07,50.93,2.35,2.361,36
9175,-23.59,64.63,-18.12,8.07,50.93,2.35,2.366,37
9189,-23.65,64.73,-18.18,8.11,51.02,2.38,2.361,36
9203,-23.65,64.73,-18.18,8.15,51.11,2.4,2.356,36
9217,-23.73,64.82,-18.25,8.19,51.2,2.42,2.361,36
9232,-23.81,64.9,-18.32,8.24,51.29,2.45,2.361,36
9246,-23.86,64.99,-18.38,8.24,51.29,2.45,2.361,36
9260,-23.9,65.08,-18.43,8.28,51.38,2.48,2.361,36
9275,-23.97,65.18,-18.5,8.32,51.47,2.5,2.361,36
9289,-23.97,65.18,-18.5,8.36,51.55,2.52,2.361,35
9303,-24.03,65.29,-18.56,8.41,51.65,2.54,2.361,35
9318,-24.06,65.39,-18.61,8.41,51.65,2.54,2.361,37
9332,-24.09,65.49,-18.67,8.47,51.74,2.57,2.361,37
9346,-24.16,65.59,-18.75,8.53,51.84,2.59,2.361,37
9361,-24.16,65.59,-18.75,8.58,51.93,2.63,2.361,36
9375,-24.25,65.69,-18.85,8.62,52.03,2.64,2.361,36
9389,-24.33,65.79,-18.95,8.62,52.03,2.64,2.361,36
9403,-24.39,65.88,-19.04,8.67,52.12,2.66,2.361,36
9418,-24.44,65.98,-19.12,8.72,52.22,2.68,2.361,36
9433,-24.44,65.98,-19.12,8.76,52.31,2.7,2.361,36
9447,-24.54,66.07,-19.21,8.8,52.4,2.72,2.361,36
9461,-24.65,66.17,-19.32,8.81,52.5,2.72,2.366,36
9476,-24.76,66.25,-19.43,8.81,52.5,2.72,2.361,36
9490,-24.87,66.33,-19.54,8.83,52.59,2.73,2.361,36
9504,-24.87,66.33,-19.54,8.85,52.69,2.73,2.361,38
9518,-24.99,66.41,-19.64,8.86,52.78,2.74,2.361,38
9533,-25.11,66.49,-19.75,8.87,52.88,2.76,2.361,37
9547,-25.24,66.56,-19.85,8.87,52.88,2.76,2.366,37
9561,-25.38,66.64,-19.98,8.89,52.97,2.77,2.361,37
9576,-25.5,66.72,-20.11,8.91,53.06,2.77,2.361,37
9590,-25.5,66.72,-20.11,8.94,53.15,2.78,2.361,37
9604,-25.62,66.81,-20.24,8.96,53.25,2.79,2.361,37
9619,-25.74,66.9,-20.37,8.96,53.25,2.79,2.361,37
9633,-25.84,66.98,-20.48,8.97,53.33,2.79,2.366,37
9647,-25.94,67.06,-20.58,9,53.42,2.81,2.361,39
9662,-25.94,67.06,-20.58,9.01,53.52,2.8,2.361,39
9676,-26.06,67.15,-20.71,9.03,53.61,2.8,2.361,37
9690,-26.18,67.24,-20.83,9.03,53.61,2.8,2.366,37
9704,-26.31,67.32,-20.96,9.05,53.7,2.81,2.361,37
9719,-26.45,67.39,-21.08,9.06,53.8,2.82,2.361,36
9733,-26.45,67.39,-21.08,9.07,53.89,2.83,2.366,36
9747,-26.6,67.47,-21.2,9.09,53.99,2.85,2.361,36
9762,-26.73,67.55,-21.33,9.09,53.99,2.85,2.361,36
9776,-26.89,67.64,-21.47,9.11,54.09,2.86,2.361,36
9791,-27.02,67.72,-21.61,9.13,54.18,2.87,2.361,35
9805,-27.02,67.72,-21.61,9.15,54.27,2.88,2.361,36
9819,-27.16,67.81,-21.73,9.16,54.37,2.89,2.361,36
9834,-27.28,67.89,-21.84,9.16,54.37,2.89,2.361,36
9848,-27.42,67.97,-21.98,9.17,54.46,2.9,2.361,38
9863,-27.58,68.05,-22.14,9.2,54.55,2.91,2.361,37
9878,-27.72,68.14,-22.29,9.21,54.65,2.92,2.361,37
9893,-27.72,68.14,-22.29,9.23,54.75,2.93,2.361,37
9907,-27.87,68.21,-22.43,9.25,54.86,2.94,2.361,37
9922,-28.03,68.28,-22.57,9.25,54.86,2.94,2.361,37
9936,-28.21,68.36,-22.74,9.26,54.96,2.95,2.366,38
9951,-28.38,68.44,-22.9,9.27,55.05,2.95,2.366,39
9966,-28.55,68.52,-23.06,9.29,55.15,2.96,2.366,41
9979,-28.55,68.52,-23.06,9.3,55.25,2.96,2.361,40
9993,-28.72,68.6,-23.21,9.3,55.25,2.96,2.366,40
10008,-28.91,68.68,-23.39,9.32,55.34,2.97,2.361,38
10023,-29.09,68.77,-23.56,9.33,55.44,2.97,2.361,38
10038,-29.26,68.85,-23.71,9.33,55.54,2.98,2.366,37
10052,-29.26,68.85,-23.71,9.34,55.64,2.98,2.361,37
10067,-29.46,68.93,-23.89,9.36,55.74,2.99,2.361,37
10081,-29.64,68.99,-24.06,9.36,55.74,2.99,2.361,37
10096,-29.84,69.07,-24.23,9.35,55.84,2.98,2.361,37
10111,-30.06,69.16,-24.44,9.36,55.93,2.97,2.361,37
10125,-30.21,69.24,-24.59,9.37,56.03,2.98,2.361,37
10140,-30.21,69.24,-24.59,9.37,56.12,2.98,2.356,37
10154,-30.37,69.32,-24.74,9.38,56.21,2.98,2.361,38
10169,-30.55,69.39,-24.9,9.38,56.21,2.98,2.361,38
10184,-30.73,69.47,-25.07,9.38,56.3,2.96,2.361,37
10198,-30.87,69.54,-25.23,9.39,56.4,2.96,2.356,37
10213,-30.87,69.54,-25.23,9.4,56.49,2.95,2.361,37
10228,-31.03,69.62,-25.4,9.41,56.58,2.95,2.361,37
10242,-31.22,69.7,-25.6,9.41,56.58,2.95,2.361,36
10257,-31.38,69.77,-25.76,9.41,56.67,2.94,2.361,36
10271,-31.59,69.84,-25.95,9.42,56.76,2.93,2.361,36
10286,-31.81,69.92,-26.14,9.41,56.85,2.93,2.356,36
10301,-31.81,69.92,-26.14,9.41,56.95,2.93,2.356,36
10315,-32.01,69.98,-26.31,9.4,57.04,2.94,2.356,35
10330,-32.16,70.04,-26.45,9.4,57.04,2.94,2.361,37
10345,-32.3,70.11,-26.58,9.4,57.13,2.93,2.361,36
10359,-32.48,70.18,-26.77,9.41,57.21,2.92,2.361,38
10374,-32.65,70.26,-26.96,9.43,57.29,2.92,2.361,38
10389,-32.65,70.26,-26.96,9.44,57.36,2.92,2.361,40
10403,-32.78,70.33,-27.1,9.46,57.44,2.92,2.361,40
10419,-32.91,70.38,-27.23,9.46,57.44,2.92,2.361,39
10433,-33.06,70.45,-27.4,9.48,57.52,2.92,2.361,38
10448,-33.22,70.52,-27.58,9.5,57.6,2.93,2.361,37
10462,-33.36,70.59,-27.73,9.52,57.68,2.92,2.356,37
10477,-33.36,70.59,-27.73,9.54,57.75,2.92,2.361,37
10492,-33.49,70.64,-27.88,9.54,57.75,2.92,2.366,37
10506,-33.63,70.7,-28.03,9.55,57.84,2.91,2.361,37
10521,-33.77,70.75,-28.18,9.57,57.92,2.91,2.361,39
10535,-33.93,70.82,-28.34,9.59,58,2.92,2.361,38
10550,-34.06,70.88,-28.48,9.61,58.08,2.93,2.356,39
10565,-34.06,70.88,-28.48,9.63,58.15,2.93,2.361,38
10579,-34.21,70.93,-28.62,9.63,58.15,2.93,2.361,38
10594,-34.35,70.99,-28.78,9.65,58.22,2.93,2.361,38
10609,-34.51,71.05,-28.95,9.67,58.3,2.94,2.361,38
10623,-34.68,71.11,-29.12,9.69,58.38,2.94,2.356,38
10638,-34.68,71.11,-29.12,9.71,58.46,2.96,2.361,37
10653,-34.85,71.17,-29.28,9.73,58.53,2.96,2.361,39
10667,-35.05,71.23,-29.47,9.73,58.53,2.96,2.356,39
10682,-35.29,71.3,-29.68,9.73,58.61,2.97,2.361,38
10696,-35.48,71.35,-29.87,9.73,58.69,2.97,2.356,37
10711,-35.7,71.4,-30.08,9.74,58.77,2.98,2.356,37
10726,-35.7,71.4,-30.08,9.75,58.85,2.98,2.356,37
10741,-35.92,71.47,-30.29,9.75,58.85,2.98,2.356,36
10755,-36.11,71.52,-30.46,9.77,58.93,3,2.351,37
10770,-36.3,71.58,-30.64,9.79,59.01,3.02,2.356,38
10784,-36.52,71.63,-30.84,9.8,59.08,3.02,2.356,38
10799,-36.72,71.68,-31.03,9.81,59.17,3.02,2.356,38
10814,-36.72,71.68,-31.03,9.81,59.25,3.02,2.356,36
10828,-36.93,71.74,-31.22,9.81,59.25,3.02,2.361,37
10843,-37.16,71.8,-31.43,9.82,59.33,3.03,2.356,37
10857,-37.38,71.85,-31.62,9.81,59.4,3.03,2.351,37
10872,-37.64,71.92,-31.82,9.81,59.49,3.04,2.351,39
10887,-37.72,71.96,-31.88,9.81,59.58,3.05,2.356,38
10902,-37.72,71.96,-31.88,9.81,59.65,3.05,2.356,38
10959,-37.84,72.01,-31.98,9.81,59.73,3.05,2.356,36
10975,-38,72.06,-32.13,9.82,59.8,3.04,2.356,36
10990,-38.23,72.13,-32.35,9.82,59.87,3.04,2.356,37
11005,-38.43,72.18,-32.55,9.84,59.94,3.04,2.356,36
11019,-38.62,72.23,-32.74,9.86,60.01,3.06,2.356,36
11034,-38.8,72.28,-32.9,9.87,60.07,3.06,2.356,35
11049,-38.99,72.34,-33.07,9.89,60.15,3.07,2.356,36
11063,-39.19,72.39,-33.25,9.9,60.22,3.08,2.356,35
11078,-39.38,72.44,-33.44,9.92,60.3,3.09,2.356,35
11093,-39.54,72.5,-33.59,9.95,60.38,3.1,2.356,37
11108,-39.67,72.55,-33.74,9.98,60.46,3.1,2.356,38
11122,-39.78,72.6,-33.87,10.02,60.53,3.1,2.361,38
11137,-39.92,72.66,-34.04,10.05,60.6,3.1,2.356,38
11152,-40.02,72.72,-34.19,10.1,60.66,3.11,2.356,37
11167,-40.12,72.78,-34.34,10.1,60.66,3.11,2.356,37
11181,-40.26,72.84,-34.53,10.14,60.72,3.12,2.356,37
11196,-40.43,72.91,-34.73,10.18,60.78,3.13,2.356,37
11210,-40.59,72.97,-34.91,10.22,60.84,3.14,2.356,36
11225,-40.74,73.03,-35.07,10.25,60.9,3.15,2.356,36
11240,-40.74,73.03,-35.07,10.28,60.97,3.17,2.356,36
11254,-40.87,73.07,-35.18,10.28,60.97,3.17,2.361,37
11268,-41.03,73.11,-35.32,10.3,61.04,3.19,2.356,36
11283,-41.19,73.16,-35.45,10.32,61.1,3.21,2.356,38
11298,-41.33,73.2,-35.59,10.33,61.16,3.22,2.356,37
11312,-41.46,73.25,-35.72,10.36,61.22,3.23,2.356,37
11327,-41.46,73.25,-35.72,10.36,61.22,3.23,2.356,37
11341,-41.59,73.3,-35.86,10.39,61.28,3.24,2.361,36
11355,-41.72,73.35,-36.01,10.43,61.34,3.26,2.356,36
11370,-41.8,73.39,-36.12,10.46,61.4,3.26,2.356,37
11385,-41.92,73.45,-36.27,10.49,61.46,3.27,2.356,37
11400,-41.92,73.45,-36.27,10.49,61.46,3.27,2.356,37
11413,-42.07,73.5,-36.44,10.52,61.53,3.27,2.361,36
11428,-42.2,73.55,-36.59,10.55,61.59,3.27,2.361,36
11443,-42.32,73.6,-36.72,10.56,61.65,3.27,2.361,36
11457,-42.48,73.64,-36.88,10.57,61.71,3.28,2.356,36
11472,-42.65,73.68,-37.05,10.58,61.77,3.27,2.356,36
11487,-42.65,73.68,-37.05,10.58,61.77,3.27,2.356,37
11500,-42.78,73.71,-37.18,10.59,61.82,3.26,2.361,37
11515,-42.94,73.74,-37.35,10.61,61.88,3.26,2.361,37
11530,-43.09,73.78,-37.51,10.63,61.94,3.27,2.356,37
11545,-43.27,73.82,-37.69,10.65,62,3.27,2.361,37
11559,-43.27,73.82,-37.69,10.65,62,3.27,2.356,37
11573,-43.47,73.86,-37.9,10.67,62.06,3.26,2.361,37
11588,-43.67,73.91,-38.12,10.69,62.12,3.27,2.361,38
11602,-43.82,73.95,-38.29,10.7,62.18,3.27,2.361,38
11617,-43.95,73.99,-38.4,10.72,62.25,3.27,2.361,37
11632,-44.07,74.01,-38.5,10.73,62.32,3.27,2.361,36
11646,-44.07,74.01,-38.5,10.73,62.32,3.27,2.361,36
11660,-44.3,74.05,-38.71,10.73,62.39,3.27,2.361,38
11675,-44.51,74.1,-38.93,10.75,62.46,3.28,2.361,38
11689,-44.65,74.14,-39.09,10.76,62.53,3.28,2.361,38
11704,-44.78,74.18,-39.23,10.79,62.59,3.29,2.361,37
11719,-44.78,74.18,-39.23,10.79,62.59,3.29,2.361,37
11732,-44.96,74.24,-39.42,10.8,62.65,3.28,2.361,36
11747,-45.15,74.28,-39.62,10.83,62.7,3.28,2.361,36
11762,-45.29,74.32,-39.77,10.83,62.76,3.29,2.361,35
11777,-45.44,74.35,-39.91,10.86,62.82,3.31,2.361,36
11792,-45.64,74.38,-40.08,10.86,62.89,3.32,2.361,36
11807,-45.64,74.38,-40.08,10.86,62.89,3.32,2.356,36
11820,-45.84,74.41,-40.27,10.87,62.95,3.33,2.361,36
11835,-46.05,74.44,-40.43,10.86,63.01,3.34,2.361,36
11850,-46.26,74.47,-40.63,10.86,63.06,3.35,2.361,36
11865,-46.49,74.5,-40.83,10.86,63.13,3.35,2.361,36
11880,-46.69,74.53,-41,10.87,63.19,3.37,2.366,38
11895,-46.69,74.53,-41,10.87,63.19,3.37,2.366,37
11908,-46.88,74.55,-41.16,10.88,63.26,3.39,2.366,37
11923,-47.06,74.58,-41.31,10.87,63.33,3.38,2.361,37
11938,-47.3,74.62,-41.54,10.87,63.39,3.39,2.361,38
11953,-47.49,74.65,-41.74,10.88,63.45,3.4,2.361,37
11968,-47.7,74.7,-41.94,10.88,63.45,3.4,2.366,36
11982,-47.7,74.7,-41.94,10.89,63.51,3.41,2.361,41
11996,-47.88,74.73,-42.13,10.92,63.57,3.42,2.356,40
12011,-48.06,74.77,-42.31,10.96,63.62,3.45,2.361,38
12026,-48.21,74.8,-42.46,10.99,63.68,3.46,2.361,37
12041,-48.41,74.83,-42.65,11,63.73,3.46,2.361,37
12056,-48.41,74.83,-42.65,11,63.73,3.46,2.361,36
12069,-48.58,74.87,-42.84,11.03,63.78,3.48,2.361,36
12084,-48.74,74.9,-42.99,11.06,63.82,3.49,2.361,38
12099,-48.87,74.93,-43.12,11.09,63.88,3.51,2.361,38
12114,-49.07,74.97,-43.31,11.1,63.93,3.52,2.361,37
12129,-49.3,75.01,-43.52,11.11,63.98,3.52,2.356,37
12143,-49.3,75.01,-43.52,11.11,63.98,3.52,2.361,37
12157,-49.52,75.05,-43.73,11.11,64.03,3.51,2.361,37
12172,-49.69,75.1,-43.89,11.12,64.07,3.52,2.361,36
12187,-49.75,75.14,-43.95,11.12,64.14,3.52,2.361,37
12202,-49.83,75.2,-44.02,11.13,64.19,3.5,2.361,38
12217,-49.99,75.25,-44.19,11.13,64.19,3.5,2.361,37
12231,-49.99,75.25,-44.19,11.14,64.25,3.49,2.366,37
12245,-50.13,75.3,-44.37,11.15,64.3,3.48,2.366,36
12260,-50.28,75.35,-44.54,11.15,64.36,3.46,2.366,37
12275,-50.46,75.38,-44.73,11.16,64.42,3.44,2.366,37
12290,-50.62,75.41,-44.92,11.19,64.47,3.45,2.366,37
12304,-50.78,75.45,-45.08,11.19,64.47,3.45,2.361,40
12319,-50.78,75.45,-45.08,11.21,64.53,3.45,2.361,38
12333,-51,75.48,-45.29,11.22,64.59,3.47,2.361,38
12348,-51.25,75.51,-45.5,11.21,64.65,3.48,2.366,37
12363,-51.49,75.53,-45.7,11.21,64.71,3.5,2.366,38
12378,-51.73,75.53,-45.9,11.21,64.77,3.5,2.361,37
12392,-51.99,75.55,-46.16,11.21,64.77,3.5,2.366,39
12407,-51.99,75.55,-46.16,11.22,64.83,3.51,2.366,38
12421,-52.24,75.58,-46.4,11.25,64.88,3.53,2.361,38
12436,-52.49,75.6,-46.65,11.26,64.93,3.54,2.361,38
12451,-52.69,75.62,-46.86,11.3,64.98,3.56,2.361,38
12466,-52.87,75.63,-47.06,11.3,64.98,3.56,2.361,37
12480,-52.87,75.63,-47.06,11.35,65.03,3.58,2.361,37
12494,-53.09,75.67,-47.29,11.38,65.07,3.58,2.361,41
12509,-53.29,75.7,-47.51,11.4,65.12,3.58,2.366,39
12524,-53.48,75.73,-47.69,11.41,65.17,3.6,2.361,39
12539,-53.55,75.74,-47.75,11.42,65.23,3.61,2.361,38
12553,-53.7,75.77,-47.9,11.42,65.23,3.61,2.361,37
12568,-53.7,75.77,-47.9,11.44,65.29,3.61,2.361,37
12582,-53.88,75.8,-48.09,11.47,65.34,3.62,2.361,37
12597,-54.06,75.83,-48.29,11.48,65.39,3.62,2.361,38
12612,-54.23,75.85,-48.48,11.49,65.44,3.61,2.361,38
12627,-54.37,75.87,-48.62,11.52,65.5,3.61,2.361,38
12641,-54.5,75.89,-48.77,11.52,65.5,3.61,2.366,38
12656,-54.5,75.89,-48.77,11.53,65.55,3.61,2.361,37
12670,-54.65,75.92,-48.94,11.54,65.59,3.6,2.361,37
12685,-54.81,75.94,-49.11,11.55,65.64,3.59,2.366,37
12700,-54.96,75.97,-49.27,11.56,65.68,3.59,2.366,37
12715,-55.15,75.99,-49.47,11.56,65.68,3.59,2.366,37
12729,-55.15,75.99,-49.47,11.57,65.73,3.57,2.366,37
12743,-55.34,76.01,-49.68,11.57,65.77,3.57,2.366,37
12758,-55.55,76.03,-49.88,11.58,65.82,3.57,2.366,37
12773,-55.72,76.05,-50.04,11.59,65.87,3.58,2.366,37
12788,-55.87,76.08,-50.17,11.59,65.91,3.58,2.366,38
12803,-56.1,76.1,-50.4,11.59,65.91,3.58,2.361,37
12817,-56.1,76.1,-50.4,11.6,65.96,3.57,2.361,37
12831,-56.3,76.12,-50.6,11.62,66,3.59,2.366,37
12846,-56.51,76.13,-50.79,11.63,66.05,3.6,2.361,36
12861,-56.66,76.14,-50.93,11.63,66.09,3.59,2.361,36
12876,-56.86,76.16,-51.13,11.64,66.14,3.59,2.361,36
12890,-57.06,76.19,-51.34,11.64,66.14,3.59,2.361,36
12905,-57.06,76.19,-51.34,11.64,66.19,3.58,2.361,36
12919,-57.26,76.21,-51.53,11.64,66.23,3.58,2.361,36
12934,-57.44,76.22,-51.69,11.62,66.29,3.57,2.361,36
12949,-57.62,76.23,-51.84,11.6,66.34,3.56,2.366,36
12964,-57.81,76.24,-52.01,11.6,66.34,3.56,2.361,38
12978,-58.03,76.25,-52.2,11.59,66.39,3.55,2.361,37
12993,-58.03,76.25,-52.2,11.57,66.44,3.56,2.366,36
13007,-58.2,76.26,-52.34,11.55,66.5,3.54,2.361,36
13022,-58.36,76.25,-52.48,11.54,66.54,3.54,2.361,37
13037,-58.53,76.26,-52.63,11.51,66.59,3.52,2.366,36
13051,-58.7,76.27,-52.78,11.51,66.59,3.52,2.366,36
13066,-58.92,76.28,-52.99,11.49,66.63,3.51,2.366,36
13081,-58.92,76.28,-52.99,11.47,66.68,3.49,2.361,36
13095,-59.1,76.29,-53.16,11.48,66.72,3.5,2.366,36
13110,-59.25,76.3,-53.28,11.48,66.78,3.51,2.366,36
13124,-59.42,76.3,-53.41,11.47,66.83,3.5,2.366,36
13139,-59.62,76.31,-53.58,11.47,66.83,3.5,2.366,37
13154,-59.62,76.31,-53.58,11.48,66.88,3.52,2.366,37
13168,-59.8,76.33,-53.74,11.49,66.93,3.52,2.366,36
13183,-59.96,76.36,-53.92,11.53,66.98,3.54,2.366,37
13197,-60.09,76.38,-54.08,11.57,67.02,3.54,2.366,38
13212,-60.25,76.41,-54.28,11.57,67.02,3.54,2.366,38
13227,-60.38,76.45,-54.48,11.63,67.05,3.56,2.366,37
13241,-60.38,76.45,-54.48,11.69,67.09,3.57,2.366,36
13256,-60.51,76.49,-54.69,11.78,67.11,3.59,2.366,37
13271,-60.61,76.53,-54.89,11.85,67.14,3.6,2.366,36
13285,-60.75,76.58,-55.13,11.93,67.16,3.61,2.361,40
13300,-60.86,76.61,-55.32,11.93,67.16,3.61,2.366,40
13314,-60.94,76.64,-55.43,12,67.19,3.63,2.366,38
13329,-60.94,76.64,-55.43,12.07,67.22,3.67,2.366,37
13344,-61.04,76.68,-55.55,12.11,67.26,3.69,2.366,37
13358,-61.21,76.7,-55.71,12.14,67.3,3.73,2.361,37
13373,-61.42,76.72,-55.89,12.15,67.33,3.74,2.366,36
13388,-61.6,76.73,-56.05,12.15,67.33,3.74,2.361,38
13402,-61.79,76.75,-56.23,12.17,67.37,3.75,2.366,37
13417,-61.79,76.75,-56.23,12.19,67.41,3.76,2.366,39
13432,-62,76.78,-56.42,12.21,67.44,3.77,2.361,38
13446,-62.14,76.81,-56.57,12.25,67.48,3.8,2.361,37
13461,-62.23,76.84,-56.64,12.25,67.48,3.8,2.366,37
13475,-62.33,76.89,-56.74,12.3,67.51,3.84,2.366,36
13490,-62.33,76.89,-56.74,12.35,67.55,3.87,2.366,36
13504,-62.31,76.93,-56.74,12.4,67.59,3.9,2.366,36
13519,-62.3,76.99,-56.75,12.45,67.62,3.93,2.366,36
13534,-62.35,77.06,-56.84,12.5,67.66,3.95,2.37,36
13549,-62.45,77.11,-56.96,12.5,67.66,3.95,2.366,36
13563,-62.61,77.15,-57.15,12.57,67.7,4,2.366,36
13576,-62.61,77.15,-57.15,12.62,67.73,4.04,2.366,36
13591,-62.77,77.19,-57.31,12.68,67.76,4.1,2.366,36
13605,-62.95,77.22,-57.46,12.75,67.8,4.17,2.366,36
13620,-63.15,77.24,-57.62,12.75,67.8,4.17,2.366,36
13635,-63.38,77.27,-57.81,12.81,67.84,4.25,2.366,36
13650,-63.38,77.27,-57.81,12.85,67.88,4.31,2.366,37
13702,-63.69,77.29,-58.07,12.9,67.93,4.37,2.361,37
13717,-63.94,77.31,-58.26,12.93,67.98,4.45,2.361,37
13732,-64.18,77.32,-58.43,12.94,68.03,4.49,2.361,36
13747,-64.38,77.33,-58.56,12.94,68.09,4.52,2.366,36
13761,-64.6,77.35,-58.73,12.95,68.14,4.55,2.361,36
13776,-64.81,77.37,-58.92,12.98,68.18,4.58,2.361,36
13791,-64.96,77.38,-59.06,13,68.23,4.6,2.366,37
13805,-65.1,77.39,-59.21,13.03,68.27,4.61,2.366,36
13820,-65.26,77.41,-59.41,13.06,68.31,4.61,2.361,37
13835,-65.48,77.44,-59.67,13.1,68.34,4.62,2.366,36
13850,-65.68,77.45,-59.89,13.13,68.38,4.63,2.366,36
13864,-65.9,77.47,-60.13,13.15,68.41,4.63,2.366,37
13879,-66.09,77.49,-60.32,13.18,68.45,4.63,2.366,37
13894,-66.28,77.5,-60.52,13.2,68.49,4.64,2.366,36
13909,-66.39,77.51,-60.65,13.23,68.53,4.65,2.366,36
13923,-66.52,77.52,-60.8,13.23,68.53,4.65,2.366,36
13937,-66.6,77.54,-60.9,13.25,68.58,4.65,2.366,36
13952,-66.71,77.55,-61.04,13.27,68.62,4.64,2.366,36
13967,-66.71,77.55,-61.04,13.29,68.66,4.63,2.366,36
13981,-66.88,77.57,-61.27,13.32,68.69,4.61,2.366,36
13996,-67.07,77.61,-61.53,13.35,68.71,4.6,2.361,36
14011,-67.23,77.63,-61.75,13.35,68.71,4.6,2.366,37
14025,-67.37,77.66,-61.94,13.4,68.75,4.6,2.361,37
14039,-67.37,77.66,-61.94,13.44,68.78,4.61,2.361,37
14054,-67.5,77.67,-62.08,13.45,68.82,4.6,2.361,36
14068,-67.63,77.68,-62.23,13.47,68.85,4.61,2.366,37
14083,-67.82,77.7,-62.43,13.47,68.85,4.61,2.366,37
14097,-68.01,77.71,-62.62,13.47,68.88,4.6,2.366,35
14112,-68.13,77.72,-62.75,13.5,68.92,4.61,2.356,36
14127,-68.13,77.72,-62.75,13.51,68.96,4.63,2.361,37
14141,-68.27,77.74,-62.86,13.54,69,4.64,2.366,36
14155,-68.43,77.76,-63.01,13.57,69.05,4.66,2.366,41
14170,-68.6,77.8,-63.2,13.57,69.05,4.66,2.366,40
14184,-68.74,77.83,-63.36,13.61,69.09,4.7,2.366,39
14199,-68.74,77.83,-63.36,13.66,69.13,4.73,2.366,38
14213,-68.92,77.86,-63.55,13.7,69.18,4.75,2.366,37
14228,-69.04,77.88,-63.7,13.77,69.22,4.79,2.366,36
14243,-69.15,77.91,-63.84,13.77,69.22,4.79,2.366,39
14257,-69.25,77.95,-63.98,13.84,69.25,4.83,2.37,39
14272,-69.42,78,-64.17,13.92,69.28,4.88,2.366,37
14286,-69.42,78,-64.17,14,69.31,4.93,2.366,37
14300,-69.54,78.04,-64.31,14.08,69.33,4.99,2.366,36
14315,-69.58,78.09,-64.36,14.17,69.36,5.06,2.366,36
14330,-69.64,78.14,-64.45,14.17,69.36,5.06,2.366,36
14344,-69.79,78.2,-64.62,14.25,69.38,5.11,2.37,36
14359,-69.91,78.25,-64.77,14.32,69.4,5.15,2.37,36
14374,-69.91,78.25,-64.77,14.42,69.43,5.22,2.37,38
14388,-69.96,78.3,-64.87,14.51,69.45,5.28,2.366,37
14402,-69.97,78.34,-64.94,14.51,69.45,5.28,2.37,36
14416,-70.06,78.38,-65.08,14.6,69.46,5.32,2.366,37
14431,-70.21,78.41,-65.29,14.68,69.47,5.35,2.37,37
14452,-70.3,78.44,-65.43,14.76,69.49,5.4,2.37,36
14468,-70.38,78.46,-65.55,14.84,69.51,5.44,2.366,36
14484,-70.62,78.48,-65.82,14.9,69.53,5.46,2.366,35
14499,-70.62,78.48,-65.82,14.94,69.54,5.47,2.366,37
14514,-70.86,78.49,-66.1,15,69.56,5.5,2.366,37
14530,-71.03,78.5,-66.29,15.04,69.6,5.54,2.366,40
14546,-71.14,78.51,-66.39,15.04,69.6,5.54,2.366,38
14561,-71.32,78.51,-66.54,15.08,69.63,5.59,2.366,37
14577,-71.54,78.51,-66.72,15.11,69.67,5.62,2.366,36
14593,-71.72,78.51,-66.89,15.13,69.7,5.65,2.37,36
14608,-71.88,78.51,-67.03,15.15,69.75,5.68,2.366,38
14623,-71.88,78.51,-67.03,15.14,69.79,5.68,2.366,38
14637,-72.05,78.5,-67.19,15.13,69.83,5.67,2.366,37
14651,-72.28,78.51,-67.41,15.13,69.83,5.67,2.366,37
14665,-72.44,78.52,-67.57,15.13,69.87,5.67,2.366,36
14680,-72.59,78.53,-67.69,15.12,69.92,5.67,2.37,36
14694,-72.59,78.53,-67.69,15.09,69.96,5.63,2.37,36
14708,-72.72,78.54,-67.82,15.06,70,5.62,2.37,35
14723,-72.84,78.55,-67.95,15.06,70,5.62,2.366,36
14737,-73.02,78.56,-68.11,15,70.05,5.6,2.375,36
14752,-73.17,78.56,-68.22,14.96,70.1,5.59,2.37,40
14766,-73.4,78.55,-68.41,14.91,70.15,5.55,2.37,38
14781,-73.4,78.55,-68.41,14.87,70.19,5.51,2.37,37
14795,-73.69,78.52,-68.68,14.87,70.19,5.51,2.37,37
14809,-73.84,78.5,-68.84,14.85,70.23,5.49,2.37,37
14823,-73.99,78.48,-68.98,14.84,70.27,5.47,2.37,38
14838,-74.17,78.47,-69.15,14.83,70.3,5.44,2.366,36
14853,-74.17,78.47,-69.15,14.81,70.34,5.41,2.37,36
14866,-74.36,78.45,-69.34,14.78,70.38,5.37,2.37,37
14881,-74.51,78.44,-69.53,14.78,70.38,5.37,2.37,37
14895,-74.66,78.42,-69.7,14.76,70.42,5.33,2.37,36
14909,-74.84,78.4,-69.88,14.74,70.46,5.3,2.37,36
14924,-74.84,78.4,-69.88,14.72,70.49,5.27,2.37,38
14938,-75.04,78.38,-70.07,14.71,70.54,5.27,2.37,38
14953,-75.24,78.37,-70.25,14.71,70.54,5.27,2.37,37
14966,-75.41,78.35,-70.4,14.71,70.58,5.26,2.366,37
14981,-75.59,78.34,-70.55,14.68,70.62,5.24,2.366,37
14996,-75.59,78.34,-70.55,14.66,70.67,5.23,2.37,36
15010,-75.82,78.33,-70.76,14.65,70.71,5.23,2.37,36
15024,-76.01,78.32,-70.93,14.65,70.71,5.23,2.37,35
15038,-76.24,78.31,-71.13,14.66,70.75,5.23,2.37,35
15053,-76.51,78.29,-71.39,14.66,70.8,5.23,2.37,37
15067,-76.51,78.29,-71.39,14.67,70.84,5.24,2.37,36
15081,-76.73,78.28,-71.62,14.69,70.88,5.25,2.37,37
15096,-76.95,78.28,-71.85,14.69,70.88,5.25,2.37,38
15110,-77.22,78.28,-72.12,14.72,70.92,5.27,2.37,37
15124,-77.5,78.29,-72.41,14.76,70.96,5.3,2.37,36
15139,-77.73,78.29,-72.64,14.81,71,5.33,2.37,39
15153,-77.73,78.29,-72.64,14.84,71.05,5.36,2.37,39
15167,-77.91,78.29,-72.83,14.84,71.05,5.36,2.37,38
15181,-78.07,78.3,-72.98,14.88,71.09,5.4,2.37,37
15196,-78.26,78.31,-73.14,14.91,71.13,5.42,2.37,37
15210,-78.48,78.31,-73.34,14.91,71.17,5.42,2.37,36
15225,-78.48,78.31,-73.34,14.94,71.2,5.44,2.37,38
15239,-78.67,78.3,-73.53,14.94,71.2,5.44,2.37,38
15253,-78.75,78.31,-73.62,14.99,71.23,5.49,2.37,38
15267,-78.93,78.32,-73.79,15.01,71.25,5.5,2.366,38
15282,-79.16,78.31,-74.01,15.03,71.27,5.51,2.37,37
15296,-79.16,78.31,-74.01,15.04,71.29,5.52,2.366,38
15311,-79.27,78.31,-74.14,15.04,71.29,5.52,2.37,38
15324,-79.38,78.31,-74.22,15.05,71.31,5.53,2.37,38
15339,-79.51,78.31,-74.34,15.07,71.33,5.55,2.37,36
15354,-79.63,78.31,-74.44,15.09,71.35,5.56,2.37,36
15368,-79.63,78.31,-74.44,15.1,71.38,5.58,2.37,36
15382,-79.75,78.3,-74.54,15.12,71.4,5.6,2.366,36
15397,-79.86,78.3,-74.65,15.12,71.4,5.6,2.366,38
15411,-79.91,78.3,-74.69,15.13,71.42,5.61,2.366,37
15425,-80.02,78.3,-74.78,15.14,71.45,5.62,2.37,36
15440,-80.16,78.3,-74.92,15.15,71.48,5.63,2.37,36
15454,-80.16,78.3,-74.92,15.17,71.5,5.64,2.37,36
15468,-80.28,78.3,-75.05,15.17,71.5,5.64,2.37,36
15482,-80.38,78.3,-75.16,15.2,71.52,5.65,2.37,36
15497,-80.48,78.31,-75.27,15.24,71.54,5.67,2.37,37
15512,-80.62,78.32,-75.43,15.26,71.56,5.68,2.37,37
15526,-80.62,78.32,-75.43,15.28,71.58,5.68,2.366,37
15540,-80.77,78.32,-75.59,15.28,71.58,5.68,2.37,37
15554,-80.9,78.32,-75.72,15.28,71.6,5.67,2.37,37
15569,-81,78.32,-75.82,15.28,71.63,5.66,2.37,36
15583,-81.12,78.32,-75.94,15.28,71.66,5.65,2.37,35
15598,-81.12,78.32,-75.94,15.29,71.68,5.65,2.37,36
15612,-81.22,78.33,-76.06,15.29,71.68,5.65,2.37,39
15626,-81.33,78.34,-76.19,15.3,71.7,5.64,2.37,37
15640,-81.36,78.34,-76.25,15.33,71.72,5.65,2.37,37
15655,-81.44,78.35,-76.35,15.35,71.75,5.64,2.37,37
15669,-81.44,78.35,-76.35,15.38,71.76,5.64,2.37,37
15683,-81.58,78.35,-76.51,15.38,71.76,5.64,2.366,37
15697,-81.75,78.36,-76.69,15.4,71.78,5.66,2.366,36
15712,-81.85,78.36,-76.79,15.43,71.8,5.68,2.37,36
15726,-81.94,78.37,-76.87,15.45,71.83,5.69,2.37,36
15741,-82.06,78.37,-76.98,15.48,71.85,5.71,2.37,38
15756,-82.06,78.37,-76.98,15.48,71.85,5.71,2.37,38
15769,-82.12,78.38,-77.06,15.49,71.88,5.72,2.37,37
15783,-82.23,78.38,-77.17,15.52,71.91,5.74,2.366,36
15798,-82.36,78.39,-77.3,15.55,71.94,5.75,2.37,39
15813,-82.49,78.39,-77.44,15.57,71.96,5.76,2.37,38
15827,-82.49,78.39,-77.44,15.61,71.98,5.77,2.366,37
15841,-82.61,78.4,-77.58,15.61,71.98,5.77,2.37,37
15855,-82.75,78.42,-77.73,15.66,71.99,5.81,2.37,36
15870,-82.91,78.43,-77.89,15.7,72.02,5.85,2.37,36
15884,-83.09,78.44,-78.06,15.73,72.05,5.88,2.37,36
15899,-83.09,78.44,-78.06,15.76,72.08,5.9,2.366,35
15913,-83.24,78.45,-78.2,15.76,72.08,5.9,2.37,35
15927,-83.42,78.46,-78.38,15.8,72.11,5.93,2.37,36
15941,-83.54,78.47,-78.51,15.83,72.14,5.96,2.37,37
15956,-83.7,78.49,-78.68,15.88,72.16,5.98,2.37,37
15970,-83.7,78.49,-78.68,15.92,72.19,6.01,2.37,36
15984,-83.77,78.51,-78.77,15.92,72.19,6.01,2.37,37
15998,-83.86,78.53,-78.89,15.96,72.22,6.03,2.37,37
16013,-84.02,78.55,-79.09,16.02,72.25,6.07,2.37,36
16027,-84.13,78.57,-79.21,16.07,72.28,6.1,2.37,35
16042,-84.26,78.59,-79.35,16.11,72.31,6.11,2.37,37
16056,-84.26,78.59,-79.35,16.11,72.31,6.11,2.37,39
16070,-84.31,78.6,-79.42,16.14,72.34,6.14,2.37,38
16084,-84.41,78.61,-79.53,16.18,72.36,6.17,2.361,37
16099,-84.54,78.62,-79.65,16.21,72.39,6.18,2.375,37
16114,-84.67,78.62,-79.78,16.24,72.41,6.21,2.37,36
16128,-84.67,78.62,-79.78,16.24,72.41,6.21,2.37,36
16141,-84.82,78.62,-79.92,16.27,72.43,6.25,2.375,36
16156,-84.99,78.62,-80.07,16.32,72.45,6.29,2.37,36
16171,-85.08,78.62,-80.15,16.36,72.48,6.32,2.375,37
16185,-85.21,78.63,-80.28,16.39,72.5,6.36,2.37,37
16200,-85.21,78.63,-80.28,16.39,72.5,6.36,2.375,36
16213,-85.34,78.63,-80.4,16.42,72.53,6.4,2.37,36
16228,-85.51,78.63,-80.55,16.44,72.55,6.41,2.375,40
16242,-85.62,78.64,-80.65,16.46,72.58,6.44,2.37,38
16257,-85.7,78.65,-80.72,16.48,72.61,6.46,2.37,38
16271,-85.7,78.65,-80.72,16.48,72.61,6.46,2.37,38
16285,-85.79,78.65,-80.79,16.5,72.64,6.47,2.37,40
16299,-85.89,78.65,-80.89,16.51,72.66,6.48,2.375,39
16314,-86,78.65,-81,16.55,72.69,6.51,2.37,38
16328,-86.1,78.66,-81.11,16.58,72.71,6.53,2.375,37
16343,-86.21,78.67,-81.22,16.6,72.73,6.54,2.375,38
16357,-86.21,78.67,-81.22,16.6,72.73,6.54,2.375,36
16371,-86.31,78.68,-81.34,16.62,72.74,6.54,2.37,36
16429,-86.44,78.68,-81.5,16.65,72.75,6.55,2.37,36
16444,-86.55,78.69,-81.61,16.69,72.76,6.57,2.375,36
16458,-86.64,78.7,-81.73,16.75,72.78,6.61,2.375,36
16473,-86.72,78.71,-81.82,16.79,72.8,6.63,2.37,35
16487,-86.79,78.71,-81.91,16.83,72.82,6.65,2.37,35
16501,-86.89,78.71,-82.04,16.86,72.84,6.65,2.37,35
16516,-87.02,78.72,-82.18,16.9,72.86,6.68,2.375,35
16530,-87.16,78.72,-82.35,16.94,72.87,6.7,2.37,36
16545,-87.22,78.74,-82.42,16.96,72.89,6.7,2.375,36
16559,-87.3,78.75,-82.51,16.97,72.9,6.69,2.37,36
16574,-87.37,78.76,-82.59,16.99,72.93,6.69,2.37,38
16588,-87.44,78.76,-82.66,17,72.96,6.7,2.37,38
16603,-87.44,78.79,-82.64,17.06,72.98,6.75,2.375,37
16617,-87.36,78.82,-82.54,17.09,73.01,6.78,2.375,36
16631,-87.34,78.85,-82.49,17.11,73.03,6.8,2.38,35
16646,-87.37,78.87,-82.53,17.14,73.06,6.82,2.38,36
16660,-87.37,78.87,-82.53,17.14,73.06,6.82,2.38,35
16673,-87.46,78.89,-82.62,17.18,73.07,6.85,2.385,37
16688,-87.54,78.9,-82.71,17.2,73.09,6.87,2.385,38
16702,-87.67,78.9,-82.87,17.25,73.1,6.9,2.385,37
16717,-87.79,78.89,-83.02,17.29,73.11,6.92,2.385,37
16731,-87.79,78.89,-83.02,17.29,73.11,6.92,2.38,37
16744,-87.95,78.89,-83.22,17.33,73.11,6.94,2.38,37
16759,-88.07,78.88,-83.38,17.38,73.12,6.98,2.38,37
16773,-88.2,78.88,-83.52,17.41,73.13,7,2.385,36
16788,-88.3,78.88,-83.65,17.45,73.14,7.02,2.385,37
16802,-88.3,78.88,-83.65,17.45,73.14,7.02,2.38,39
16815,-88.43,78.88,-83.78,17.49,73.15,7.05,2.38,37
16830,-88.55,78.88,-83.9,17.51,73.18,7.06,2.38,37
16844,-88.61,78.88,-83.96,17.52,73.2,7.06,2.385,36
16859,-88.64,78.89,-83.99,17.54,73.22,7.09,2.38,36
16873,-88.64,78.89,-83.99,17.54,73.22,7.09,2.38,36
16886,-88.68,78.89,-84.04,17.54,73.24,7.07,2.385,37
16901,-88.74,78.89,-84.12,17.56,73.25,7.06,2.38,38
16915,-88.82,78.89,-84.21,17.56,73.27,7.05,2.38,38
16930,-88.93,78.89,-84.34,17.57,73.29,7.04,2.385,37
16944,-88.93,78.89,-84.34,17.57,73.29,7.04,2.385,37
16957,-89.02,78.88,-84.45,17.56,73.3,7.03,2.385,36
16972,-89.15,78.88,-84.59,17.59,73.31,7.04,2.38,36
16986,-89.29,78.87,-84.73,17.57,73.32,7.02,2.38,37
17001,-89.41,78.87,-84.85,17.57,73.34,7.02,2.38,37
17015,-89.41,78.87,-84.85,17.57,73.34,7.02,2.38,36
17028,-89.41,78.87,-84.85,17.59,73.37,7.02,2.38,36
17043,-89.45,78.87,-84.88,17.59,73.4,7.02,2.38,37
17057,-89.55,78.86,-84.98,17.58,73.42,7,2.38,37
17072,-89.68,78.86,-85.13,17.59,73.44,7,2.38,37
17086,-89.68,78.86,-85.13,17.59,73.44,7,2.38,37
17099,-89.75,78.85,-85.21,17.6,73.46,6.99,2.38,36
17114,-89.75,78.85,-85.22,17.61,73.47,7,2.38,36
17128,-89.76,78.85,-85.24,17.62,73.49,6.99,2.38,36
17143,-89.88,78.86,-85.38,17.64,73.51,6.99,2.38,37
17157,-89.88,78.86,-85.38,17.64,73.51,6.99,2.38,36
17170,-89.99,78.85,-85.5,17.66,73.53,7,2.385,39
17185,-90.07,78.85,-85.58,17.68,73.56,7.01,2.38,37
17199,-90.15,78.84,-85.65,17.67,73.58,7.01,2.385,37
17214,-90.22,78.83,-85.71,17.71,73.6,7.05,2.385,36
17228,-90.22,78.83,-85.71,17.71,73.6,7.05,2.38,36
17242,-90.33,78.83,-85.81,17.73,73.61,7.07,2.38,36
17256,-90.46,78.82,-85.93,17.74,73.62,7.08,2.38,36
17271,-90.53,78.83,-86,17.76,73.64,7.09,2.385,35
17286,-90.6,78.84,-86.07,17.79,73.66,7.13,2.385,37
17300,-90.69,78.85,-86.15,17.79,73.66,7.13,2.385,37
17314,-90.69,78.85,-86.15,17.8,73.68,7.13,2.385,35
17328,-90.77,78.84,-86.24,17.84,73.69,7.15,2.385,35
17343,-90.82,78.85,-86.3,17.85,73.7,7.16,2.385,35
17357,-90.91,78.86,-86.41,17.88,73.71,7.17,2.385,35
17372,-90.91,78.88,-86.43,17.88,73.71,7.17,2.385,35
17386,-90.91,78.88,-86.43,17.91,73.72,7.18,2.38,35
17400,-90.87,78.89,-86.42,17.92,73.73,7.18,2.385,34
17414,-90.86,78.9,-86.46,17.95,73.74,7.19,2.385,35
17429,-90.83,78.92,-86.48,17.96,73.74,7.19,2.385,35
17443,-90.75,78.93,-86.45,17.96,73.74,7.19,2.385,36
17457,-90.75,78.93,-86.45,17.96,73.73,7.17,2.385,37
17471,-90.63,78.95,-86.37,17.99,73.74,7.15,2.39,38
17486,-90.53,78.95,-86.32,18.01,73.73,7.09,2.385,40
17500,-90.44,78.93,-86.29,18.04,73.73,7.01,2.39,40
17515,-90.32,78.88,-86.23,18.04,73.73,7.01,2.39,40
17529,-90.32,78.88,-86.23,18.04,73.71,6.9,2.385,49
17543,-90.23,78.81,-86.21,18.06,73.69,6.82,2.38,48
17557,-90.15,78.74,-86.15,18.07,73.67,6.76,2.385,49
17572,-90.08,78.67,-86.09,18.07,73.65,6.71,2.38,46
17587,-90.11,78.61,-86.15,18.07,73.65,6.71,2.375,47
17601,-90.24,78.55,-86.3,18.09,73.65,6.66,2.375,44
17615,-90.24,78.55,-86.3,18.07,73.64,6.55,2.375,47
17629,-90.19,78.52,-86.3,18.05,73.64,6.42,2.37,44
17644,-89.98,78.49,-86.15,18.01,73.63,6.3,2.37,40
17658,-89.87,78.47,-86.1,17.94,73.61,6.15,2.37,39
17673,-89.85,78.44,-86.14,17.94,73.61,6.15,2.375,38
17687,-89.85,78.44,-86.14,17.85,73.59,5.98,2.37,38
17701,-89.78,78.43,-86.14,17.78,73.58,5.84,2.37,37
17715,-89.65,78.43,-86.08,17.67,73.57,5.7,2.375,37
17730,-89.34,78.42,-85.82,17.55,73.56,5.56,2.375,37
17744,-89.09,78.42,-85.59,17.55,73.56,5.56,2.375,38
17758,-89.09,78.42,-85.59,17.4,73.56,5.4,2.375,37
17772,-88.81,78.42,-85.34,17.26,73.55,5.2,2.375,37
17787,-88.45,78.43,-85.01,17.07,73.53,4.94,2.38,42
17801,-87.98,78.44,-84.62,16.93,73.51,4.72,2.38,40
17816,-87.41,78.46,-84.15,16.93,73.51,4.72,2.38,42
17830,-87.41,78.46,-84.15,16.77,73.47,4.5,2.38,58
17844,-86.93,78.48,-83.74,16.52,73.4,4.25,2.375,53
17858,-86.59,78.51,-83.45,16.26,73.33,4.04,2.375,49
17873,-86.13,78.58,-83.02,15.99,73.29,3.83,2.38,47
17887,-85.41,78.66,-82.35,15.99,73.29,3.83,2.38,44
17901,-85.41,78.66,-82.35,15.71,73.24,3.58,2.38,41
17915,-84.72,78.75,-81.7,15.38,73.17,3.24,2.385,39
17930,-84.1,78.86,-81.15,15.02,73.1,2.89,2.385,38
17945,-83.23,78.99,-80.38,14.69,73.04,2.58,2.385,37
17959,-82.31,79.11,-79.54,14.69,73.04,2.58,2.385,36
17973,-81.57,79.2,-78.86,14.37,73,2.28,2.39,36
17988,-81.57,79.2,-78.86,14.1,72.94,2,2.385,37
18001,-81.34,79.26,-78.7,13.93,72.86,1.88,2.385,37
18016,-81.59,79.31,-79.03,13.88,72.73,1.95,2.38,36
18031,-81.87,79.34,-79.4,13.88,72.73,1.95,2.375,36
18044,-81.98,79.35,-79.5,13.82,72.62,2.04,2.375,38
18059,-81.98,79.35,-79.5,13.78,72.54,2.08,2.375,37
18073,-82.4,79.36,-79.9,13.76,72.46,2.06,2.375,37
18088,-82.94,79.39,-80.43,13.75,72.42,2.01,2.38,36
18102,-83.26,79.38,-80.74,13.75,72.42,2.01,2.375,37
18116,-83.5,79.35,-80.96,13.75,72.39,1.89,2.375,36
18131,-83.5,79.35,-80.96,13.78,72.4,1.72,2.375,37
18145,-83.73,79.3,-81.2,13.84,72.43,1.52,2.375,37
18159,-83.8,79.25,-81.4,13.98,72.47,1.27,2.375,38
18174,-83.7,79.28,-81.61,13.83,72.61,0.61,2.375,39
18189,-83.53,79.32,-81.86,13.83,72.61,0.61,2.38,40
18203,-83.53,79.32,-81.86,13.32,72.88,-0.52,2.38,41
18216,-83.32,79.31,-82.21,12.62,73.15,-1.83,2.385,41
18231,-83.39,79.22,-82.87,11.8,73.39,-3.18,2.385,41
18246,-83.64,79.1,-83.65,10.87,73.64,-4.62,2.39,42
18260,-84.35,78.94,-84.8,10.87,73.64,-4.62,2.39,41
18274,-85.3,78.78,-86.06,9.95,73.89,-6.05,2.385,42
18289,-85.3,78.78,-86.06,9.15,74.13,-7.29,2.385,41
18303,-85.65,78.66,-86.84,8.37,74.37,-8.44,2.385,41
18317,-85.89,78.51,-87.44,7.63,74.59,-9.57,2.39,39
18332,-86.42,78.34,-88.29,7.63,74.59,-9.57,2.39,39
18346,-87.08,78.18,-89.24,7,74.76,-10.59,2.39,38
18360,-87.08,78.18,-89.24,6.63,74.87,-11.34,2.39,38
18374,-88.06,77.98,-90.46,6.98,74.88,-11.35,2.38,38
18389,-88.8,77.89,-91.37,7.82,74.82,-10.73,2.385,80
18403,-89.81,78.01,-92.56,7.82,74.82,-10.73,2.38,68
18417,-90.94,78.1,-93.73,8.4,74.99,-10.13,2.39,58
18432,-90.94,78.1,-93.73,8.96,75.17,-9.39,2.39,52
18446,-91.69,78.12,-94.35,9.4,75.3,-8.66,2.39,47
18460,-92.11,78.12,-94.5,9.48,75.52,-8.25,2.395,43
18475,-92.39,78.08,-94.42,9.48,75.52,-8.25,2.395,47
18489,-92.98,77.96,-94.61,9.46,75.76,-8.01,2.4,47
18503,-92.98,77.96,-94.61,9.63,75.98,-7.59,2.4,46
18517,-93.77,77.85,-94.99,9.92,76.21,-6.98,2.405,48
18532,-94.64,77.77,-95.43,10.18,76.46,-6.39,2.41,61
18547,-95.72,77.64,-96.02,10.18,76.46,-6.39,2.41,55
18560,-96.64,77.48,-96.53,10.39,76.68,-5.85,2.41,50
18575,-97.53,77.37,-97.07,10.76,76.89,-5.11,2.41,65
18590,-97.53,77.37,-97.07,11.21,77.11,-4.26,2.41,66
18604,-98.41,77.26,-97.58,11.78,77.32,-3.34,2.41,68
18618,-99.31,77.16,-98.02,12.19,77.52,-2.56,2.414,64
18633,-100.26,77.06,-98.49,12.19,77.52,-2.56,2.414,73
18647,-101,76.97,-98.74,12.62,77.73,-1.78,2.414,68
18661,-101,76.97,-98.74,13.13,77.93,-0.87,2.41,67
18675,-101.7,76.91,-98.94,13.53,78.13,-0.1,2.41,63
18690,-102.39,76.86,-99.15,13.77,78.32,0.39,2.41,56
18704,-103.06,76.79,-99.43,13.77,78.32,0.39,2.414,52
18718,-103.62,76.7,-99.74,14.02,78.47,0.79,2.41,62
18733,-103.62,76.7,-99.74,14.19,78.6,1.05,2.41,75
18747,-104.12,76.56,-100.1,14.3,78.7,1.24,2.41,85
18761,-104.61,76.4,-100.51,14.45,78.75,1.44,2.4,72
18776,-104.9,76.26,-100.78,14.45,78.75,1.44,2.405,71
18790,-105.17,76.13,-101.08,14.56,78.81,1.56,2.395,87
18804,-105.17,76.13,-101.08,14.48,78.83,1.41,2.395,129
18818,-105.32,76,-101.33,14.43,78.79,1.22,2.39,127
18833,-105.31,75.94,-101.58,14.39,78.75,1.01,2.39,107
18848,-105.15,75.94,-101.8,14.39,78.75,1.01,2.385,108
18861,-104.86,75.95,-101.97,14.2,78.71,0.54,2.385,130
18876,-104.52,75.98,-102.07,13.94,78.64,0.05,2.38,191
18891,-104.52,75.98,-102.07,13.71,78.58,-0.3,2.375,193
18905,-104.28,76.03,-102.23,13.38,78.56,-0.68,2.375,296
18919,-104.27,76.05,-102.57,13.38,78.56,-0.68,2.37,479
18934,-104.35,76.03,-102.94,12.93,78.55,-1.16,2.37,562
18948,-104.52,76.02,-103.28,12.47,78.53,-1.57,2.366,552
18963,-104.52,76.02,-103.28,11.94,78.52,-2.1,2.366,672
18978,-104.27,76.05,-103.15,11.47,78.51,-2.75,2.37,672
18992,-103.95,76.06,-103.06,10.94,78.45,-3.5,2.37,748
19007,-103.73,76.05,-103.24,10.94,78.45,-3.5,2.37,723
19022,-103.49,76.04,-103.46,10.55,78.39,-4.07,2.37,628
19036,-103.4,76.01,-103.74,10.19,78.34,-4.58,2.37,527
19051,-103.4,76.01,-103.74,9.77,78.3,-5.15,2.366,516
19109,-103.19,75.97,-103.77,9.29,78.24,-5.75,2.361,500
19125,-103.07,75.88,-103.77,8.87,78.19,-6.23,2.361,475
19139,-102.97,75.74,-103.76,8.66,78.14,-6.44,2.361,519
19154,-102.9,75.61,-103.82,8.5,78.11,-6.6,2.361,435
19169,-102.82,75.5,-103.8,8.37,78.06,-6.73,2.361,461
19184,-102.7,75.4,-103.69,8.2,78.02,-6.88,2.361,519
19198,-102.46,75.33,-103.42,8.03,78.01,-6.99,2.366,462
19213,-102.22,75.27,-103.1,7.73,77.98,-7.2,2.361,499
19228,-101.96,75.2,-102.75,7.45,77.95,-7.41,2.361,481
19243,-101.76,75.09,-102.45,7.18,77.92,-7.6,2.356,421
19257,-101.63,74.97,-102.24,6.95,77.87,-7.77,2.356,441
19272,-101.49,74.85,-102.03,6.75,77.82,-7.91,2.356,554
19287,-101.28,74.73,-101.76,6.61,77.77,-8.02,2.356,466
19302,-101,74.66,-101.42,6.45,77.73,-8.14,2.366,377
19316,-100.73,74.62,-101.08,6.28,77.68,-8.24,2.361,350
19331,-100.47,74.6,-100.72,6.05,77.65,-8.44,2.361,324
19346,-100.22,74.56,-100.36,6.05,77.65,-8.44,2.366,295
19360,-99.99,74.5,-100.02,5.74,77.62,-8.72,2.37,353
19375,-99.72,74.44,-99.64,5.43,77.59,-8.98,2.37,343
19389,-99.72,74.44,-99.64,5.15,77.57,-9.17,2.37,263
19404,-99.46,74.38,-99.24,4.86,77.57,-9.37,2.375,370
19418,-99.23,74.33,-98.87,4.53,77.54,-9.61,2.375,336
19433,-99.05,74.27,-98.58,4.53,77.54,-9.61,2.38,307
19447,-98.84,74.21,-98.32,4.23,77.51,-9.84,2.375,263
19462,-98.64,74.18,-98.08,3.95,77.48,-10.08,2.38,301
19477,-98.64,74.18,-98.08,3.63,77.46,-10.4,2.38,297
19491,-98.57,74.13,-97.97,3.39,77.44,-10.66,2.38,316
19506,-98.49,74.08,-97.89,3.39,77.44,-10.66,2.385,267
19520,-98.44,74.06,-97.86,3.25,77.42,-10.8,2.38,261
19535,-98.34,74.03,-97.75,3.1,77.41,-10.94,2.38,285
19549,-98.19,74,-97.63,2.97,77.4,-11.09,2.385,302
19564,-98.19,74,-97.63,2.87,77.37,-11.18,2.38,257
19578,-98.09,73.99,-97.53,2.75,77.35,-11.3,2.385,267
19593,-98.01,73.98,-97.46,2.75,77.35,-11.3,2.38,313
19607,-97.92,73.98,-97.39,2.6,77.34,-11.43,2.38,317
19622,-97.79,73.98,-97.26,2.46,77.32,-11.57,2.38,290
19637,-97.79,73.98,-97.26,2.36,77.31,-11.68,2.385,279
19651,-97.68,73.98,-97.16,2.3,77.29,-11.72,2.385,249
19666,-97.64,73.99,-97.13,2.3,77.29,-11.72,2.385,334
19680,-97.55,74,-97.03,2.28,77.27,-11.73,2.385,278
19694,-97.4,74,-96.9,2.21,77.25,-11.82,2.38,238
19709,-97.28,74.01,-96.83,2.11,77.22,-11.95,2.385,217
19724,-97.28,74.01,-96.83,2.02,77.2,-12.06,2.385,212
19738,-97.16,74.03,-96.77,2.02,77.2,-12.06,2.385,243
19752,-96.99,74.04,-96.69,1.89,77.17,-12.22,2.39,261
19767,-96.85,74.05,-96.62,1.8,77.16,-12.35,2.385,235
19782,-96.82,74.06,-96.65,1.79,77.16,-12.39,2.39,236
19797,-96.82,74.06,-96.65,1.79,77.18,-12.42,2.39,214
19811,-96.9,74.07,-96.75,1.76,77.19,-12.48,2.39,233
19825,-96.92,74.06,-96.79,1.76,77.19,-12.48,2.39,213
19840,-96.89,74.06,-96.77,1.69,77.19,-12.59,2.385,273
19854,-96.84,74.07,-96.73,1.62,77.18,-12.68,2.39,252
19869,-96.78,74.06,-96.67,1.48,77.19,-12.83,2.395,279
19884,-96.78,74.06,-96.67,1.38,77.18,-12.92,2.39,237
19898,-96.76,74.06,-96.66,1.38,77.18,-12.92,2.395,249
19912,-96.74,74.06,-96.64,1.29,77.19,-12.98,2.395,271
19927,-96.77,74.06,-96.65,1.19,77.2,-13.06,2.395,264
19942,-96.77,74.07,-96.65,1.12,77.21,-13.12,2.395,245
19957,-96.74,74.08,-96.64,1,77.23,-13.25,2.395,223
19972,-96.74,74.08,-96.64,0.85,77.23,-13.47,2.395,243
19986,-96.62,74.08,-96.59,0.85,77.23,-13.47,2.4,228
20000,-96.57,74.07,-96.65,0.78,77.23,-13.61,2.395,248
20015,-96.61,74.08,-96.77,0.82,77.23,-13.63,2.395,218
20030,-96.63,74.09,-96.81,0.8,77.25,-13.67,2.4,232
20045,-96.63,74.09,-96.81,0.77,77.27,-13.72,2.4,281
20059,-96.64,74.1,-96.86,0.71,77.29,-13.79,2.4,246
20074,-96.65,74.11,-96.9,0.71,77.29,-13.79,2.4,230
20088,-96.67,74.11,-96.93,0.66,77.31,-13.88,2.4,288
20103,-96.71,74.1,-97,0.57,77.34,-14.03,2.4,265
20118,-96.72,74.07,-97.03,0.48,77.36,-14.18,2.4,290
20133,-96.72,74.07,-97.03,0.46,77.37,-14.24,2.4,253
20147,-96.77,74.06,-97.09,0.43,77.4,-14.28,2.4,280
20162,-96.85,74.04,-97.19,0.43,77.4,-14.28,2.4,282
20176,-96.95,74.03,-97.32,0.4,77.42,-14.35,2.4,284
20191,-97.02,74.03,-97.46,0.39,77.44,-14.42,2.405,337
20206,-97.03,74.03,-97.57,0.4,77.45,-14.47,2.4,308
20221,-97.03,74.03,-97.57,0.42,77.46,-14.52,2.4,290
20235,-97.1,74.05,-97.73,0.42,77.46,-14.52,2.4,268
20250,-97.19,74.06,-97.89,0.47,77.48,-14.53,2.4,304
20265,-97.29,74.06,-98.05,0.49,77.51,-14.56,2.405,280
20279,-97.4,74.06,-98.19,0.52,77.54,-14.56,2.405,273
20294,-97.5,74.06,-98.3,0.58,77.57,-14.51,2.4,315
20309,-97.5,74.06,-98.3,0.6,77.61,-14.48,2.405,309
20323,-97.6,74.07,-98.4,0.6,77.61,-14.48,2.405,288
20338,-97.69,74.08,-98.49,0.61,77.64,-14.45,2.405,255
20353,-97.81,74.08,-98.61,0.61,77.67,-14.45,2.405,299
20368,-97.94,74.09,-98.76,0.59,77.71,-14.46,2.405,266
20382,-98.01,74.1,-98.86,0.58,77.73,-14.47,2.405,258
20397,-98.01,74.1,-98.86,0.59,77.76,-14.49,2.405,274
20412,-98.08,74.09,-98.96,0.59,77.76,-14.49,2.405,323
20426,-98.22,74.09,-99.11,0.62,77.79,-14.47,2.405,267
20441,-98.36,74.08,-99.27,0.65,77.81,-14.45,2.405,265
20456,-98.48,74.08,-99.41,0.7,77.83,-14.39,2.4,248
20470,-98.57,74.1,-99.53,0.74,77.86,-14.32,2.405,248
20485,-98.57,74.1,-99.53,0.74,77.86,-14.32,2.405,246
20499,-98.65,74.12,-99.63,0.74,77.88,-14.29,2.405,203
20514,-98.79,74.13,-99.78,0.74,77.9,-14.26,2.405,225
20529,-98.87,74.13,-99.9,0.68,77.92,-14.29,2.405,224
20544,-98.95,74.13,-100.03,0.61,77.95,-14.37,2.405,283
20558,-98.95,74.13,-100.03,0.55,77.96,-14.46,2.405,295
20573,-99.02,74.13,-100.16,0.55,77.96,-14.46,2.405,256
20587,-99.09,74.12,-100.3,0.49,77.97,-14.57,2.4,251
20600,-99.15,74.12,-100.42,0.46,77.98,-14.67,2.405,217
20615,-99.24,74.12,-100.59,0.46,78,-14.71,2.405,228
20630,-99.35,74.13,-100.74,0.45,78.02,-14.74,2.405,237
20645,-99.35,74.13,-100.74,0.45,78.02,-14.74,2.41,263
20659,-99.45,74.14,-100.86,0.43,78.05,-14.78,2.405,237
20673,-99.63,74.14,-101.05,0.4,78.09,-14.82,2.405,234
20688,-99.76,74.14,-101.2,0.38,78.12,-14.86,2.41,232
20703,-99.89,74.14,-101.34,0.37,78.14,-14.88,2.405,265
20718,-99.89,74.14,-101.34,0.33,78.17,-14.92,2.405,287
20732,-100.02,74.14,-101.44,0.33,78.17,-14.92,2.41,262
20747,-100.13,74.13,-101.53,0.29,78.2,-14.97,2.405,239
20761,-100.22,74.12,-101.63,0.25,78.23,-15.02,2.41,202
20776,-100.37,74.11,-101.79,0.26,78.25,-15.02,2.405,191
20791,-100.5,74.11,-101.93,0.27,78.27,-15,2.405,217
20806,-100.5,74.11,-101.93,0.28,78.29,-14.98,2.405,194
20820,-100.56,74.11,-101.99,0.28,78.29,-14.98,2.41,234
20835,-100.61,74.1,-102.04,0.26,78.3,-15,2.405,196
20849,-100.68,74.08,-102.12,0.22,78.31,-15.06,2.405,188
20864,-100.74,74.06,-102.2,0.19,78.32,-15.11,2.405,176
20879,-100.77,74.04,-102.21,0.18,78.32,-15.13,2.405,242
20894,-100.77,74.04,-102.21,0.18,78.32,-15.13,2.405,207
20908,-100.79,74.04,-102.21,0.17,78.32,-15.14,2.41,188
20923,-100.8,74.02,-102.19,0.15,78.33,-15.15,2.405,205
20938,-100.87,73.98,-102.24,0.08,78.34,-15.2,2.405,181
20953,-100.9,73.95,-102.26,0.08,78.34,-15.21,2.405,224
20968,-100.92,73.93,-102.29,0.03,78.34,-15.25,2.405,221
20983,-100.92,73.93,-102.29,0.03,78.34,-15.25,2.405,214
20996,-100.94,73.91,-102.29,0,78.34,-15.29,2.405,205
21011,-101.01,73.88,-102.33,-0.01,78.34,-15.29,2.405,244
21026,-101.08,73.88,-102.36,0.01,78.34,-15.24,2.405,226
21041,-101.12,73.87,-102.35,0.05,78.34,-15.17,2.405,207
21056,-101.17,73.88,-102.35,0.08,78.35,-15.09,2.405,260
21071,-101.17,73.88,-102.35,0.08,78.35,-15.09,2.405,237
21084,-101.22,73.87,-102.37,0.07,78.36,-15.06,2.4,215
21099,-101.22,73.87,-102.35,0.07,78.36,-15.04,2.4,210
21114,-101.24,73.87,-102.37,0.12,78.36,-14.96,2.405,209
21129,-101.26,73.88,-102.35,0.13,78.36,-14.9,2.405,194
21144,-101.25,73.88,-102.33,0.16,78.36,-14.85,2.405,192
21159,-101.25,73.88,-102.33,0.16,78.36,-14.85,2.405,163
21172,-101.22,73.89,-102.28,0.22,78.36,-14.77,2.405,208
21187,-101.21,73.9,-102.27,0.23,78.35,-14.76,2.41,204
21202,-101.16,73.9,-102.22,0.27,78.35,-14.75,2.41,215
21217,-101.13,73.89,-102.21,0.29,78.35,-14.77,2.405,196
21232,-101.13,73.89,-102.21,0.29,78.35,-14.77,2.405,192
21246,-101.09,73.88,-102.2,0.29,78.33,-14.82,2.405,186
21260,-100.97,73.88,-102.13,0.31,78.31,-14.87,2.405,248
21275,-100.8,73.88,-102.02,0.36,78.3,-14.93,2.4,210
21290,-100.56,73.88,-101.85,0.27,78.27,-15.14,2.405,211
21305,-100.25,73.86,-101.65,0.04,78.22,-15.53,2.405,214
21320,-100.25,73.86,-101.65,0.04,78.22,-15.53,2.405,229
21334,-99.89,73.83,-101.44,-0.13,78.15,-15.9,2.405,217
21348,-99.64,73.79,-101.35,0.01,78.08,-15.89,2.405,213
21363,-99.58,73.78,-101.4,0.24,78.07,-15.77,2.405,225
21378,-99.61,73.76,-101.46,0.36,78.05,-15.76,2.405,192
21393,-99.48,73.75,-101.36,0.46,78.02,-15.79,2.4,226
21408,-99.48,73.75,-101.36,0.46,78.02,-15.79,2.4,242
21422,-99.4,73.78,-101.3,0.56,77.99,-15.78,2.4,224
21437,-99.33,73.81,-101.25,0.6,77.96,-15.8,2.4,223
21451,-99.23,73.82,-101.14,0.62,77.94,-15.82,2.4,192
21466,-99.13,73.85,-101.04,0.65,77.93,-15.83,2.4,206
21481,-99.06,73.86,-100.98,0.66,77.92,-15.84,2.405,247
21496,-99.06,73.86,-100.98,0.66,77.92,-15.84,2.405,208
21510,-99.02,73.87,-100.97,0.67,77.93,-15.87,2.405,182
21525,-98.99,73.88,-100.97,0.65,77.92,-15.93,2.405,174
21539,-98.95,73.89,-100.97,0.68,77.93,-15.92,2.405,164
21554,-98.95,73.91,-100.99,0.67,77.93,-15.95,2.405,162
21569,-98.97,73.93,-101.01,0.67,77.93,-15.95,2.4,185
21583,-98.97,73.93,-101.01,0.6,77.95,-16.01,2.4,187
21598,-99.01,73.92,-101.01,0.49,77.97,-16.1,2.405,174
21613,-99.02,73.91,-101,0.34,78,-16.21,2.405,198
21628,-99.07,73.88,-101.01,0.2,78.02,-16.31,2.405,202
21642,-99.08,73.85,-100.99,0.06,78.03,-16.44,2.405,195
21657,-99.11,73.83,-101.01,0.06,78.03,-16.44,2.41,213
21672,-99.11,73.83,-101.01,-0.03,78.04,-16.52,2.405,217
21686,-99.21,73.81,-101.1,-0.07,78.04,-16.57,2.405,203
21701,-99.3,73.79,-101.2,-0.06,78.05,-16.55,2.405,182
21715,-99.36,73.79,-101.26,0,78.07,-16.47,2.405,177
21730,-99.43,73.79,-101.3,0.04,78.08,-16.39,2.405,162
21745,-99.43,73.79,-101.3,0.04,78.08,-16.39,2.405,177
21759,-99.48,73.79,-101.31,0.03,78.1,-16.35,2.41,200
21774,-99.57,73.78,-101.34,0.07,78.11,-16.26,2.41,171
21789,-99.62,73.79,-101.33,0.08,78.13,-16.2,2.405,170
21804,-99.67,73.79,-101.32,0.06,78.14,-16.17,2.405,162
21818,-99.74,73.79,-101.32,0.06,78.14,-16.17,2.405,177
21876,-99.81,73.79,-101.36,0.07,78.15,-16.12,2.405,164
21892,-99.89,73.78,-101.41,0.11,78.16,-16.04,2.405,162
21906,-99.9,73.78,-101.42,0.09,78.17,-16.06,2.405,170
21921,-99.8,73.78,-101.36,0.05,78.17,-16.14,2.405,157
21936,-99.69,73.78,-101.32,0.01,78.16,-16.25,2.405,163
21951,-99.55,73.78,-101.28,-0.02,78.14,-16.39,2.405,212
21965,-99.4,73.78,-101.28,-0.13,78.11,-16.65,2.41,176
21980,-99.25,73.78,-101.26,-0.23,78.06,-16.91,2.405,182
21995,-99.22,73.79,-101.35,-0.24,78.02,-17.04,2.405,178
22010,-99.31,73.8,-101.47,-0.13,78,-17,2.405,191
22024,-99.41,73.8,-101.58,-0.11,78.02,-17.03,2.405,217
22039,-99.48,73.8,-101.66,-0.07,78.04,-17.03,2.405,174
22054,-99.56,73.82,-101.72,0,78.06,-16.99,2.405,195
22069,-99.64,73.82,-101.78,0.07,78.08,-16.92,2.405,193
22083,-99.63,73.82,-101.74,0.1,78.09,-16.88,2.405,197
22098,-99.63,73.82,-101.74,0.07,78.1,-16.91,2.405,161
22112,-99.63,73.82,-101.74,0.07,78.1,-16.94,2.41,211
22127,-99.62,73.81,-101.76,0.07,78.1,-16.97,2.405,183
22142,-99.64,73.81,-101.82,0.09,78.1,-16.96,2.405,179
22157,-99.71,73.81,-101.9,0.1,78.11,-16.97,2.405,188
22171,-99.76,73.81,-101.97,0.1,78.11,-16.97,2.405,160
22186,-99.76,73.81,-101.97,0.08,78.13,-17.01,2.405,156
22200,-99.8,73.81,-102.02,0.06,78.13,-17.06,2.41,152
22214,-99.83,73.81,-102.06,0.05,78.14,-17.09,2.405,175
22229,-99.86,73.81,-102.1,0.02,78.14,-17.18,2.405,157
22244,-99.81,73.8,-102.07,0.02,78.14,-17.18,2.405,185
22258,-99.81,73.8,-102.07,-0.04,78.14,-17.27,2.405,163
22272,-99.77,73.79,-102.04,-0.09,78.13,-17.35,2.405,190
22287,-99.78,73.78,-102.05,-0.13,78.15,-17.39,2.405,184
22302,-99.84,73.78,-102.1,-0.16,78.15,-17.45,2.41,181
22316,-99.84,73.78,-102.11,-0.21,78.16,-17.52,2.4,183
22331,-99.8,73.78,-102.11,-0.21,78.16,-17.52,2.405,207
22346,-99.8,73.78,-102.11,-0.23,78.16,-17.56,2.41,241
22360,-99.87,73.77,-102.19,-0.22,78.17,-17.56,2.405,230
22374,-99.98,73.77,-102.31,-0.22,78.18,-17.55,2.405,188
22389,-100.02,73.78,-102.34,-0.21,78.2,-17.53,2.41,201
22404,-100.01,73.78,-102.34,-0.21,78.2,-17.53,2.41,186
22418,-100.01,73.78,-102.34,-0.2,78.21,-17.52,2.405,189
22432,-100.01,73.78,-102.34,-0.21,78.21,-17.54,2.405,219
22447,-100.06,73.78,-102.38,-0.22,78.22,-17.57,2.405,201
22462,-100.1,73.77,-102.43,-0.26,78.23,-17.61,2.405,213
22477,-100.11,73.77,-102.43,-0.28,78.23,-17.63,2.41,206
22491,-100.12,73.77,-102.43,-0.28,78.23,-17.63,2.41,181
22505,-100.12,73.77,-102.43,-0.29,78.24,-17.65,2.41,184
22520,-100.12,73.77,-102.45,-0.31,78.24,-17.7,2.405,163
22534,-100.15,73.76,-102.5,-0.32,78.24,-17.75,2.405,188
22549,-100.13,73.75,-102.52,-0.34,78.23,-17.83,2.4,212
22564,-100.09,73.74,-102.55,-0.34,78.23,-17.83,2.41,191
22578,-100.09,73.74,-102.55,-0.41,78.23,-17.98,2.41,212
22592,-100.02,73.74,-102.56,-0.48,78.21,-18.13,2.405,210
22607,-99.94,73.74,-102.57,-0.56,78.19,-18.3,2.41,205
22622,-99.89,73.75,-102.6,-0.66,78.15,-18.48,2.405,210
22636,-99.77,73.75,-102.57,-0.66,78.15,-18.48,2.41,228
22651,-99.67,73.74,-102.55,-0.77,78.12,-18.68,2.41,233
22665,-99.67,73.74,-102.55,-0.78,78.11,-18.74,2.405,249
22679,-99.66,73.74,-102.59,-0.8,78.11,-18.81,2.405,225
22694,-99.68,73.73,-102.64,-0.82,78.1,-18.86,2.405,233
22709,-99.67,73.73,-102.65,-0.84,78.12,-18.88,2.41,241
22724,-99.71,73.74,-102.69,-0.84,78.12,-18.88,2.41,207
22738,-99.73,73.75,-102.69,-0.83,78.14,-18.86,2.405,226
22753,-99.73,73.75,-102.69,-0.81,78.15,-18.82,2.41,216
22768,-99.73,73.76,-102.67,-0.82,78.16,-18.83,2.41,234
22782,-99.75,73.76,-102.67,-0.82,78.15,-18.82,2.405,228
22797,-99.75,73.78,-102.69,-0.79,78.15,-18.78,2.405,333
22812,-99.77,73.79,-102.69,-0.79,78.15,-18.78,2.41,333
22826,-99.89,73.8,-102.77,-0.68,78.16,-18.62,2.41,333
22842,-99.89,73.8,-102.77,-0.55,78.19,-18.43,2.414,331
22856,-100.02,73.81,-102.85,-0.48,78.23,-18.3,2.41,332
22871,-100.11,73.83,-102.87,-0.46,78.25,-18.23,2.41,315
22886,-100.13,73.85,-102.85,-0.43,78.27,-18.16,2.41,289
22901,-100.13,73.88,-102.82,-0.43,78.27,-18.16,2.41,320
22915,-100.13,73.88,-102.82,-0.42,78.29,-18.12,2.41,293
22929,-100.18,73.9,-102.84,-0.38,78.31,-18.05,2.41,281
22944,-100.19,73.92,-102.85,-0.39,78.33,-18.03,2.41,266
22959,-100.17,73.94,-102.83,-0.43,78.36,-18.05,2.41,294
22974,-100.16,73.95,-102.82,-0.43,78.36,-18.05,2.414,298
22988,-100.14,73.97,-102.84,-0.48,78.38,-18.14,2.41,277
23003,-100.14,73.97,-102.84,-0.57,78.39,-18.26,2.41,231
23017,-100.08,73.97,-102.83,-0.62,78.41,-18.36,2.41,218
23032,-100.1,73.95,-102.88,-0.72,78.41,-18.5,2.414,236
23047,-100.16,73.92,-102.96,-0.83,78.43,-18.65,2.41,273
23062,-100.24,73.88,-103.06,-0.83,78.43,-18.65,2.41,251
23076,-100.28,73.87,-103.12,-0.88,78.44,-18.71,2.41,264
23091,-100.28,73.87,-103.12,-0.87,78.45,-18.71,2.41,232
23105,-100.35,73.86,-103.18,-0.91,78.46,-18.77,2.41,230
23120,-100.4,73.84,-103.23,-0.94,78.46,-18.82,2.41,246
23135,-100.4,73.84,-103.26,-0.99,78.46,-18.88,2.41,231
23150,-100.43,73.83,-103.3,-0.99,78.46,-18.88,2.405,253
23164,-100.5,73.81,-103.36,-1.03,78.47,-18.94,2.41,274
23179,-100.5,73.81,-103.36,-1.03,78.48,-18.96,2.41,258
23193,-100.5,73.8,-103.36,-1.04,78.49,-18.99,2.414,251
23208,-100.5,73.8,-103.38,-1.06,78.49,-19.05,2.414,225
23223,-100.47,73.79,-103.36,-1.06,78.49,-19.05,2.405,203
23237,-100.44,73.79,-103.36,-1.08,78.49,-19.11,2.41,184
23252,-100.49,73.78,-103.45,-1.1,78.5,-19.17,2.41,246
23273,-100.49,73.76,-103.5,-1.11,78.5,-19.22,2.41,224
23289,-100.52,73.75,-103.56,-1.1,78.5,-19.25,2.41,207
23305,-100.63,73.73,-103.69,-1.09,78.5,-19.28,2.41,199
23321,-100.63,73.73,-103.69,-1.06,78.5,-19.28,2.41,238
23336,-100.69,73.72,-103.77,-1.05,78.5,-19.29,2.41,204
23352,-100.71,73.71,-103.82,-1,78.5,-19.26,2.414,271
23367,-100.75,73.71,-103.86,-0.97,78.51,-19.25,2.41,259
23383,-100.79,73.7,-103.89,-0.97,78.51,-19.25,2.41,235
23398,-100.84,73.69,-103.94,-0.97,78.52,-19.26,2.41,231
23414,-100.89,73.68,-103.99,-0.97,78.52,-19.26,2.405,207
23429,-100.89,73.68,-103.99,-0.95,78.54,-19.26,2.405,208
23443,-100.93,73.67,-104.04,-0.92,78.55,-19.25,2.41,231
23457,-100.95,73.67,-104.08,-0.9,78.55,-19.27,2.41,280
23472,-100.94,73.66,-104.11,-0.9,78.55,-19.27,2.41,287
23486,-100.98,73.67,-104.18,-0.86,78.55,-19.27,2.41,248
23500,-101.04,73.67,-104.26,-0.83,78.55,-19.27,2.414,264
23515,-101.04,73.67,-104.26,-0.77,78.55,-19.22,2.41,239
23529,-101.1,73.67,-104.32,-0.75,78.56,-19.19,2.41,279
23543,-101.13,73.68,-104.35,-0.71,78.57,-19.16,2.41,260
23558,-101.15,73.69,-104.37,-0.71,78.57,-19.16,2.41,287
23572,-101.2,73.69,-104.4,-0.68,78.58,-19.14,2.41,250
23586,-101.2,73.69,-104.4,-0.66,78.59,-19.12,2.41,234
23600,-101.25,73.69,-104.45,-0.66,78.6,-19.11,2.41,265
23615,-101.27,73.68,-104.46,-0.65,78.6,-19.07,2.41,224
23630,-101.26,73.69,-104.44,-0.65,78.6,-19.07,2.41,256
23644,-101.3,73.69,-104.46,-0.65,78.61,-19.08,2.405,232
23658,-101.3,73.69,-104.46,-0.66,78.62,-19.09,2.41,268
23672,-101.37,73.67,-104.52,-0.67,78.63,-19.09,2.41,243
23687,-101.4,73.67,-104.54,-0.64,78.63,-19.04,2.41,214
23701,-101.41,73.68,-104.53,-0.64,78.63,-19.04,2.414,197
23715,-101.44,73.67,-104.54,-0.62,78.64,-19.01,2.41,209
23730,-101.49,73.66,-104.57,-0.63,78.65,-19.01,2.41,253
23745,-101.49,73.66,-104.57,-0.62,78.66,-18.98,2.41,262
23759,-101.56,73.66,-104.61,-0.6,78.67,-18.96,2.405,237
23773,-101.55,73.66,-104.59,-0.6,78.67,-18.96,2.41,215
23787,-101.59,73.66,-104.62,-0.59,78.69,-18.93,2.41,225
23802,-101.62,73.66,-104.65,-0.57,78.7,-18.92,2.41,251
23816,-101.62,73.66,-104.65,-0.57,78.71,-18.92,2.41,250
23830,-101.65,73.67,-104.69,-0.57,78.72,-18.93,2.41,244
23845,-101.68,73.67,-104.72,-0.57,78.72,-18.93,2.405,227
23859,-101.69,73.66,-104.74,-0.57,78.74,-18.94,2.41,268
23873,-101.71,73.66,-104.78,-0.57,78.75,-18.97,2.41,312
23888,-101.71,73.66,-104.78,-0.58,78.75,-18.99,2.405,270
23902,-101.71,73.65,-104.79,-0.55,78.75,-18.97,2.41,254
23916,-101.76,73.65,-104.85,-0.55,78.75,-18.97,2.41,242
23929,-101.79,73.66,-104.87,-0.55,78.76,-18.97,2.405,250
23944,-101.81,73.65,-104.89,-0.55,78.77,-18.97,2.41,229
23958,-101.81,73.65,-104.89,-0.57,78.78,-19,2.41,267
23972,-101.81,73.65,-104.89,-0.59,78.78,-19.03,2.414,223
23987,-101.83,73.64,-104.89,-0.59,78.78,-19.03,2.41,278
24001,-101.85,73.64,-104.91,-0.6,78.78,-19.05,2.41,228
24015,-101.83,73.64,-104.9,-0.63,78.79,-19.09,2.41,270
24030,-101.83,73.64,-104.9,-0.65,78.79,-19.12,2.41,272
24044,-101.83,73.64,-104.89,-0.67,78.79,-19.15,2.41,253
24058,-101.83,73.63,-104.9,-0.67,78.79,-19.15,2.41,229
24072,-101.86,73.63,-104.94,-0.73,78.79,-19.21,2.41,200
24087,-101.89,73.63,-104.97,-0.75,78.79,-19.23,2.41,192
24101,-101.89,73.63,-104.97,-0.77,78.79,-19.26,2.41,237
24115,-101.9,73.63,-104.98,-0.8,78.79,-19.28,2.41,238
24130,-101.89,73.62,-104.98,-0.8,78.79,-19.28,2.41,218
24144,-101.88,73.62,-104.97,-0.8,78.78,-19.28,2.405,198
24158,-101.88,73.62,-104.95,-0.79,78.78,-19.28,2.41,195
24173,-101.88,73.62,-104.95,-0.86,78.78,-19.34,2.41,216
24187,-101.9,73.61,-104.95,-0.89,78.79,-19.38,2.41,252
24201,-101.91,73.61,-104.96,-0.89,78.8,-19.4,2.414,225
24216,-101.9,73.62,-104.96,-0.89,78.8,-19.4,2.41,225
24230,-101.87,73.61,-104.95,-0.93,78.8,-19.46,2.41,215
24244,-101.88,73.61,-104.98,-0.94,78.8,-19.5,2.41,228
24259,-101.88,73.61,-104.98,-0.94,78.81,-19.52,2.41,213
24273,-101.86,73.61,-105,-0.93,78.81,-19.53,2.41,202
24287,-101.86,73.61,-105.03,-0.93,78.81,-19.53,2.41,187
24301,-101.85,73.62,-105.05,-0.9,78.81,-19.53,2.41,157
24316,-101.88,73.62,-105.11,-0.87,78.82,-19.52,2.41,175
24330,-101.88,73.62,-105.11,-0.87,78.82,-19.54,2.41,207
24344,-101.87,73.62,-105.12,-0.87,78.83,-19.55,2.41,192
24359,-101.87,73.62,-105.13,-0.87,78.83,-19.55,2.41,189
24373,-101.9,73.62,-105.16,-0.85,78.84,-19.56,2.41,162
24387,-101.92,73.62,-105.19,-0.85,78.85,-19.57,2.41,177
24402,-101.92,73.62,-105.19,-0.84,78.85,-19.57,2.41,198
24416,-101.98,73.61,-105.24,-0.83,78.85,-19.57,2.41,190
24430,-102.03,73.6,-105.29,-0.83,78.85,-19.57,2.41,174
24444,-102.05,73.59,-105.31,-0.8,78.87,-19.55,2.41,233
24459,-102.08,73.6,-105.33,-0.79,78.87,-19.54,2.41,230
24474,-102.08,73.6,-105.33,-0.77,78.88,-19.53,2.41,219
24487,-102.1,73.6,-105.35,-0.77,78.88,-19.52,2.41,202
24502,-102.13,73.6,-105.39,-0.77,78.88,-19.52,2.41,209
24516,-102.16,73.6,-105.41,-0.77,78.9,-19.54,2.41,191
24531,-102.2,73.6,-105.44,-0.78,78.91,-19.55,2.41,208
24582,-102.23,73.6,-105.5,-0.75,78.91,-19.52,2.41,203
24597,-102.23,73.6,-105.51,-0.72,78.92,-19.49,2.41,220
24611,-102.29,73.6,-105.58,-0.69,78.92,-19.47,2.41,213
24626,-102.33,73.6,-105.62,-0.68,78.93,-19.48,2.41,197
24640,-102.35,73.6,-105.65,-0.67,78.93,-19.47,2.41,196
24655,-102.38,73.6,-105.7,-0.65,78.95,-19.47,2.41,211
24669,-102.42,73.61,-105.74,-0.61,78.95,-19.44,2.41,237
24684,-102.47,73.61,-105.79,-0.58,78.96,-19.42,2.41,239
24698,-102.49,73.61,-105.8,-0.51,78.97,-19.36,2.41,232
24713,-102.52,73.61,-105.83,-0.46,78.98,-19.3,2.41,193
24727,-102.63,73.61,-105.92,-0.4,78.99,-19.23,2.41,310
24741,-102.76,73.61,-106.03,-0.32,79.01,-19.16,2.41,270
24756,-102.76,73.61,-106.03,-0.26,79.01,-19.08,2.41,291
24770,-102.86,73.6,-106.1,-0.26,79.01,-19.08,2.41,249
24783,-102.89,73.61,-106.1,-0.2,79.02,-19.01,2.405,211
24798,-102.91,73.62,-106.1,-0.12,79.03,-18.93,2.41,197
24812,-102.97,73.62,-106.15,-0.05,79.03,-18.86,2.41,291
24827,-102.97,73.62,-106.15,-0.02,79.03,-18.83,2.41,258
24841,-103.03,73.62,-106.21,-0.02,79.03,-18.83,2.41,257
24854,-103.08,73.63,-106.25,0,79.04,-18.8,2.41,231
24869,-103.11,73.64,-106.28,0.05,79.04,-18.75,2.41,193
24883,-103.16,73.64,-106.34,0.11,79.05,-18.7,2.41,202
24898,-103.16,73.64,-106.34,0.16,79.06,-18.66,2.41,192
24912,-103.22,73.65,-106.41,0.16,79.06,-18.66,2.41,221
24925,-103.28,73.64,-106.46,0.17,79.07,-18.66,2.41,206
24940,-103.3,73.65,-106.49,0.18,79.07,-18.65,2.405,206
24954,-103.31,73.65,-106.49,0.23,79.08,-18.6,2.41,220
24969,-103.31,73.65,-106.49,0.24,79.09,-18.59,2.41,235
24983,-103.33,73.66,-106.51,0.24,79.09,-18.59,2.41,235
24996,-103.37,73.66,-106.54,0.26,79.09,-18.58,2.41,202
25011,-103.42,73.66,-106.59,0.3,79.1,-18.54,2.405,213
25025,-103.44,73.66,-106.61,0.31,79.12,-18.54,2.41,219
25040,-103.44,73.66,-106.61,0.33,79.13,-18.54,2.41,204
25054,-103.44,73.67,-106.62,0.33,79.13,-18.54,2.41,239
25067,-103.42,73.68,-106.63,0.38,79.13,-18.52,2.41,222
25082,-103.47,73.68,-106.7,0.42,79.14,-18.51,2.41,209
25096,-103.51,73.69,-106.77,0.48,79.14,-18.47,2.41,195
25111,-103.51,73.69,-106.77,0.53,79.14,-18.43,2.405,233
25125,-103.51,73.7,-106.79,0.53,79.14,-18.43,2.41,226
25138,-103.51,73.71,-106.79,0.58,79.14,-18.38,2.41,256
25153,-103.5,73.72,-106.8,0.62,79.14,-18.34,2.41,217
25167,-103.56,73.72,-106.86,0.68,79.15,-18.3,2.41,198
25182,-103.56,73.72,-106.86,0.71,79.15,-18.29,2.41,210
25196,-103.57,73.72,-106.88,0.71,79.15,-18.29,2.41,198
25209,-103.57,73.72,-106.89,0.73,79.14,-18.28,2.41,226
25224,-103.61,73.72,-106.93,0.75,79.14,-18.26,2.41,229
25238,-103.64,73.73,-106.95,0.78,79.15,-18.24,2.41,211
25253,-103.64,73.73,-106.95,0.79,79.15,-18.23,2.41,205
25266,-103.65,73.73,-106.95,0.79,79.15,-18.23,2.41,203
25280,-103.65,73.73,-106.93,0.8,79.16,-18.21,2.414,186
25295,-103.65,73.73,-106.91,0.78,79.17,-18.21,2.41,218
25309,-103.66,73.74,-106.89,0.75,79.17,-18.24,2.414,210
25324,-103.66,73.74,-106.89,0.74,79.17,-18.24,2.41,199
25338,-103.67,73.74,-106.88,0.74,79.17,-18.24,2.414,190
25351,-103.69,73.74,-106.9,0.71,79.17,-18.26,2.414,190
25366,-103.72,73.73,-106.91,0.67,79.18,-18.29,2.414,170
25380,-103.71,73.73,-106.87,0.63,79.18,-18.32,2.414,179
25395,-103.71,73.73,-106.87,0.58,79.18,-18.37,2.414,167
25409,-103.7,73.72,-106.85,0.58,79.18,-18.37,2.414,178
25423,-103.73,73.71,-106.85,0.56,79.19,-18.39,2.414,178
25437,-103.75,73.7,-106.85,0.49,79.19,-18.44,2.41,191
25452,-103.75,73.7,-106.82,0.42,79.19,-18.5,2.414,176
25466,-103.73,73.69,-106.81,0.34,79.19,-18.58,2.41,194
25481,-103.73,73.69,-106.81,0.34,79.19,-18.58,2.414,209
25494,-103.73,73.67,-106.8,0.26,79.19,-18.67,2.414,228
25509,-103.74,73.66,-106.81,0.18,79.19,-18.76,2.414,192
25523,-103.67,73.66,-106.76,0.1,79.18,-18.85,2.414,193
25538,-103.59,73.66,-106.72,-0.02,79.17,-19.01,2.41,205
25552,-103.59,73.66,-106.72,-0.02,79.17,-19.01,2.414,209
25566,-103.57,73.65,-106.7,-0.06,79.15,-19.05,2.414,218
25580,-103.6,73.65,-106.73,-0.06,79.15,-19.03,2.414,212
25595,-103.64,73.65,-106.74,-0.1,79.16,-19.05,2.414,209
25609,-103.66,73.64,-106.75,-0.16,79.16,-19.1,2.414,218
25624,-103.66,73.64,-106.75,-0.16,79.16,-19.1,2.414,213
25637,-103.68,73.64,-106.77,-0.14,79.16,-19.09,2.414,222
25652,-103.67,73.65,-106.75,-0.15,79.16,-19.1,2.414,224
25667,-103.65,73.65,-106.73,-0.17,79.16,-19.13,2.414,220
25681,-103.64,73.65,-106.74,-0.17,79.15,-19.14,2.414,240
25696,-103.64,73.65,-106.74,-0.15,79.15,-19.15,2.414,215
25710,-103.66,73.64,-106.78,-0.15,79.15,-19.15,2.414,225
25723,-103.67,73.64,-106.82,-0.15,79.15,-19.18,2.419,192
25738,-103.66,73.64,-106.82,-0.16,79.14,-19.21,2.414,229
25753,-103.65,73.65,-106.83,-0.17,79.15,-19.23,2.414,229
25767,-103.64,73.64,-106.83,-0.15,79.15,-19.24,2.414,245
25782,-103.64,73.64,-106.83,-0.15,79.15,-19.24,2.414,206
25795,-103.66,73.63,-106.85,-0.2,79.15,-19.3,2.419,189
25810,-103.66,73.63,-106.84,-0.25,79.16,-19.35,2.414,199
25824,-103.65,73.62,-106.83,-0.28,79.16,-19.39,2.414,174
25839,-103.66,73.62,-106.84,-0.29,79.16,-19.4,2.419,200
25854,-103.66,73.62,-106.84,-0.29,79.16,-19.4,2.419,206
25867,-103.66,73.61,-106.86,-0.32,79.17,-19.45,2.414,228
25881,-103.68,73.6,-106.89,-0.33,79.17,-19.47,2.414,227
25896,-103.7,73.6,-106.92,-0.29,79.17,-19.45,2.414,208
25911,-103.72,73.6,-106.95,-0.27,79.17,-19.46,2.414,208
25925,-103.72,73.6,-106.95,-0.27,79.17,-19.46,2.419,204
25939,-103.74,73.59,-106.99,-0.28,79.18,-19.48,2.419,215
25953,-103.71,73.59,-106.97,-0.29,79.19,-19.5,2.419,201
25968,-103.73,73.59,-107,-0.26,79.2,-19.49,2.419,209
25982,-103.76,73.59,-107.05,-0.27,79.2,-19.51,2.419,225
25997,-103.76,73.59,-107.05,-0.27,79.2,-19.51,2.414,228
26010,-103.78,73.59,-107.08,-0.25,79.2,-19.51,2.419,210
26025,-103.77,73.6,-107.08,-0.25,79.2,-19.53,2.419,208
26039,-103.76,73.61,-107.08,-0.23,79.21,-19.53,2.414,193
26054,-103.79,73.6,-107.13,-0.24,79.21,-19.54,2.419,190
26068,-103.79,73.6,-107.13,-0.24,79.21,-19.54,2.414,215
26082,-103.81,73.6,-107.16,-0.2,79.2,-19.51,2.414,257
26096,-103.82,73.6,-107.18,-0.17,79.21,-19.48,2.414,217
26111,-103.84,73.6,-107.21,-0.11,79.22,-19.44,2.414,198
26125,-103.86,73.6,-107.25,-0.1,79.23,-19.44,2.419,194
26140,-103.87,73.6,-107.26,-0.16,79.24,-19.51,2.414,209
26154,-103.87,73.6,-107.26,-0.16,79.24,-19.51,2.419,241
26168,-103.87,73.6,-107.29,-0.16,79.24,-19.53,2.419,238
26182,-103.9,73.6,-107.32,-0.16,79.24,-19.53,2.414,227
26197,-103.91,73.6,-107.34,-0.17,79.25,-19.55,2.419,220
26211,-103.96,73.6,-107.39,-0.18,79.26,-19.55,2.419,191
26226,-103.96,73.6,-107.39,-0.18,79.26,-19.55,2.414,181
26239,-103.99,73.6,-107.43,-0.18,79.26,-19.56,2.414,180
26254,-104,73.6,-107.45,-0.19,79.27,-19.58,2.414,201
26268,-104.02,73.6,-107.48,-0.21,79.26,-19.61,2.414,260
26283,-104.03,73.6,-107.5,-0.25,79.26,-19.66,2.414,245
26298,-104.03,73.6,-107.5,-0.25,79.26,-19.66,2.414,237
26311,-104.05,73.6,-107.55,-0.26,79.25,-19.69,2.414,218
26326,-104.05,73.6,-107.57,-0.25,79.25,-19.69,2.414,222
26340,-104.04,73.61,-107.57,-0.26,79.25,-19.72,2.414,205
26355,-104.05,73.62,-107.58,-0.26,79.25,-19.74,2.414,190
26369,-104.05,73.62,-107.58,-0.26,79.25,-19.74,2.419,173
26383,-104.05,73.61,-107.59,-0.3,79.25,-19.79,2.419,177
26397,-104.06,73.61,-107.62,-0.29,79.25,-19.79,2.414,152
26412,-104.01,73.61,-107.59,-0.29,79.24,-19.81,2.414,181
26426,-103.96,73.61,-107.55,-0.27,79.24,-19.8,2.419,229
26441,-103.96,73.63,-107.55,-0.27,79.24,-19.8,2.414,208
26455,-103.96,73.63,-107.55,-0.26,79.23,-19.8,2.414,210
26469,-103.97,73.62,-107.58,-0.27,79.23,-19.83,2.419,187
26484,-103.91,73.63,-107.53,-0.26,79.23,-19.83,2.414,169
26498,-103.88,73.63,-107.52,-0.23,79.22,-19.83,2.414,180
26513,-103.85,73.63,-107.49,-0.2,79.21,-19.81,2.419,219
26527,-103.85,73.63,-107.49,-0.2,79.21,-19.81,2.419,208
26541,-103.86,73.63,-107.51,-0.19,79.21,-19.81,2.414,204
26555,-103.84,73.63,-107.49,-0.18,79.21,-19.8,2.414,206
26570,-103.8,73.64,-107.45,-0.17,79.2,-19.8,2.414,208
26584,-103.82,73.64,-107.46,-0.16,79.2,-19.78,2.419,214
26599,-103.82,73.64,-107.46,-0.16,79.2,-19.78,2.419,203
26612,-103.83,73.63,-107.46,-0.19,79.2,-19.81,2.414,262
26627,-103.81,73.63,-107.42,-0.22,79.21,-19.84,2.419,209
26641,-103.81,73.63,-107.4,-0.25,79.21,-19.87,2.414,205
26656,-103.82,73.61,-107.4,-0.3,79.21,-19.92,2.414,169
26671,-103.82,73.61,-107.4,-0.3,79.21,-19.92,2.419,162
26684,-103.82,73.6,-107.39,-0.33,79.21,-19.97,2.414,144
26699,-103.83,73.59,-107.41,-0.35,79.21,-20,2.414,214
26713,-103.84,73.58,-107.42,-0.37,79.22,-20.03,2.414,206
26728,-103.83,73.58,-107.41,-0.39,79.23,-20.05,2.414,174
26742,-103.83,73.57,-107.42,-0.39,79.23,-20.05,2.414,173
26756,-103.83,73.57,-107.42,-0.44,79.24,-20.1,2.41,153
26770,-103.86,73.55,-107.44,-0.53,79.26,-20.19,2.414,167
26785,-103.89,73.53,-107.45,-0.58,79.29,-20.2,2.414,205
26799,-104.01,73.5,-107.53,-0.55,79.31,-20.08,2.419,218
26814,-104.11,73.49,-107.55,-0.55,79.31,-20.08,2.414,203
26828,-104.11,73.49,-107.55,-0.6,79.35,-20.08,2.414,168
26842,-104.1,73.46,-107.46,-0.77,79.37,-20.28,2.414,153
26856,-104.07,73.42,-107.42,-0.8,79.35,-20.34,2.414,159
26871,-104.09,73.4,-107.46,-0.83,79.34,-20.38,2.414,226
26885,-104.11,73.37,-107.48,-0.83,79.34,-20.38,2.41,244
26899,-104.11,73.37,-107.48,-0.84,79.33,-20.39,2.414,240
26913,-104.1,73.35,-107.45,-0.87,79.33,-20.42,2.414,261
26928,-104.12,73.34,-107.47,-0.88,79.33,-20.44,2.414,237
26942,-104.12,73.34,-107.49,-0.9,79.32,-20.48,2.419,239
26957,-104.13,73.34,-107.53,-0.9,79.32,-20.48,2.419,230
26971,-104.13,73.34,-107.53,-0.93,79.32,-20.54,2.414,260
26985,-104.14,73.34,-107.57,-0.98,79.31,-20.61,2.414,221
26999,-104.11,73.34,-107.55,-1.02,79.31,-20.66,2.414,248
27014,-104.08,73.34,-107.54,-1.05,79.31,-20.71,2.414,228
27029,-104.08,73.34,-107.57,-1.1,79.29,-20.79,2.414,220
27043,-104.06,73.34,-107.59,-1.1,79.29,-20.79,2.414,186
27057,-104.06,73.34,-107.59,-1.1,79.28,-20.83,2.414,224
27071,-104.04,73.34,-107.59,-1.1,79.27,-20.85,2.414,229
27086,-104.03,73.34,-107.61,-1.13,79.27,-20.9,2.419,230
27100,-104.05,73.34,-107.66,-1.13,79.27,-20.91,2.414,215
27115,-104.1,73.34,-107.71,-1.13,79.27,-20.91,2.414,230
27129,-104.1,73.34,-107.71,-1.18,79.28,-20.96,2.414,242
27143,-104.11,73.33,-107.72,-1.23,79.29,-21.03,2.414,199
27157,-104.1,73.32,-107.73,-1.29,79.28,-21.11,2.414,250
27172,-104.09,73.32,-107.74,-1.3,79.29,-21.13,2.414,241
27186,-104.07,73.31,-107.75,-1.3,79.29,-21.13,2.414,236
27200,-104.07,73.31,-107.75,-1.33,79.3,-21.19,2.414,236
27214,-104.08,73.3,-107.77,-1.38,79.31,-21.24,2.414,271
27229,-104.1,73.3,-107.79,-1.39,79.32,-21.27,2.414,268
27243,-104.1,73.3,-107.8,-1.41,79.32,-21.31,2.414,255
27313,-104.09,73.29,-107.8,-1.44,79.32,-21.35,2.419,230
27328,-104.11,73.29,-107.82,-1.49,79.32,-21.41,2.414,209
27343,-104.09,73.28,-107.83,-1.54,79.32,-21.48,2.419,197
27357,-104.09,73.29,-107.86,-1.56,79.32,-21.52,2.414,229
27371,-104.08,73.3,-107.88,-1.58,79.32,-21.57,2.414,251
27386,-104.09,73.3,-107.92,-1.57,79.32,-21.6,2.414,258
27400,-104.08,73.3,-107.95,-1.58,79.31,-21.64,2.414,223
27415,-104.07,73.3,-107.99,-1.53,79.31,-21.63,2.419,213
27429,-104.08,73.3,-108.02,-1.5,79.31,-21.63,2.419,222
27444,-104.09,73.3,-108.04,-1.49,79.31,-21.63,2.414,203
27458,-104.1,73.31,-108.05,-1.46,79.32,-21.62,2.414,221
27473,-104.11,73.3,-108.08,-1.44,79.32,-21.62,2.414,235
27488,-104.12,73.31,-108.11,-1.44,79.32,-21.63,2.414,227
27502,-104.14,73.3,-108.13,-1.42,79.32,-21.62,2.414,220
27517,-104.15,73.31,-108.15,-1.39,79.31,-21.6,2.419,236
27532,-104.16,73.31,-108.16,-1.39,79.31,-21.62,2.414,231
27547,-104.18,73.31,-108.21,-1.41,79.31,-21.65,2.414,259
27561,-104.19,73.3,-108.23,-1.41,79.31,-21.65,2.414,268
27574,-104.19,73.3,-108.23,-1.38,79.3,-21.63,2.414,237
27588,-104.2,73.3,-108.24,-1.37,79.3,-21.63,2.414,218
27603,-104.22,73.31,-108.25,-1.35,79.3,-21.6,2.414,228
27617,-104.2,73.31,-108.24,-1.38,79.3,-21.63,2.414,224
27632,-104.2,73.31,-108.25,-1.38,79.3,-21.63,2.414,239
27646,-104.24,73.31,-108.3,-1.39,79.31,-21.65,2.419,232
27661,-104.24,73.31,-108.3,-1.39,79.31,-21.66,2.414,270
27675,-104.25,73.3,-108.32,-1.36,79.32,-21.63,2.414,241
27690,-104.22,73.3,-108.3,-1.37,79.32,-21.66,2.414,208
27704,-104.21,73.31,-108.31,-1.38,79.31,-21.69,2.414,210
27719,-104.23,73.31,-108.34,-1.38,79.31,-21.69,2.414,216
27733,-104.23,73.31,-108.34,-1.4,79.32,-21.72,2.414,229
27747,-104.23,73.31,-108.35,-1.37,79.32,-21.71,2.414,261
27762,-104.21,73.32,-108.34,-1.37,79.32,-21.7,2.414,224
27777,-104.24,73.32,-108.35,-1.39,79.33,-21.73,2.419,223
27791,-104.25,73.33,-108.37,-1.39,79.33,-21.73,2.414,212
27805,-104.23,73.32,-108.35,-1.38,79.32,-21.74,2.414,233
27820,-104.23,73.32,-108.35,-1.36,79.33,-21.73,2.419,240
27834,-104.2,73.33,-108.33,-1.36,79.32,-21.75,2.414,265
27849,-104.21,73.34,-108.34,-1.36,79.31,-21.76,2.414,227
27864,-104.19,73.34,-108.33,-1.36,79.31,-21.76,2.414,216
27878,-104.16,73.33,-108.32,-1.34,79.31,-21.78,2.414,196
27892,-104.16,73.33,-108.32,-1.31,79.3,-21.79,2.414,227
27907,-104.12,73.34,-108.31,-1.25,79.29,-21.74,2.414,257
27921,-104.09,73.35,-108.3,-1.21,79.29,-21.71,2.419,267
27936,-104.09,73.35,-108.32,-1.15,79.28,-21.65,2.414,278
27951,-104.1,73.35,-108.33,-1.15,79.28,-21.65,2.419,263
27965,-104.09,73.37,-108.3,-1.1,79.28,-21.63,2.414,246
27979,-104.09,73.37,-108.3,-1.11,79.28,-21.64,2.414,221
27994,-104.1,73.38,-108.32,-1.1,79.29,-21.63,2.414,193
28008,-104.1,73.39,-108.31,-1.14,79.3,-21.66,2.414,212
28023,-104.13,73.38,-108.32,-1.14,79.3,-21.66,2.414,246
28037,-104.13,73.36,-108.31,-1.2,79.32,-21.7,2.414,280
28052,-104.13,73.36,-108.31,-1.24,79.32,-21.74,2.419,285
28066,-104.16,73.35,-108.33,-1.24,79.33,-21.75,2.414,224
28081,-104.18,73.34,-108.36,-1.25,79.32,-21.78,2.414,209
28095,-104.22,73.35,-108.42,-1.24,79.32,-21.77,2.41,245
28110,-104.24,73.35,-108.45,-1.24,79.32,-21.77,2.419,299
28125,-104.26,73.33,-108.47,-1.27,79.33,-21.8,2.414,288
28139,-104.26,73.33,-108.47,-1.3,79.33,-21.84,2.41,274
28154,-104.25,73.33,-108.47,-1.32,79.32,-21.87,2.419,261
28169,-104.2,73.33,-108.42,-1.31,79.31,-21.86,2.414,288
28183,-104.17,73.33,-108.38,-1.31,79.31,-21.86,2.414,280
28198,-104.11,73.34,-108.32,-1.33,79.31,-21.87,2.414,271
28212,-104.08,73.36,-108.29,-1.34,79.3,-21.88,2.414,243
28227,-104.08,73.36,-108.29,-1.33,79.29,-21.86,2.414,267
28242,-104.07,73.38,-108.27,-1.34,79.29,-21.84,2.419,222
28256,-104.06,73.38,-108.23,-1.36,79.29,-21.83,2.414,247
28271,-104.06,73.38,-108.2,-1.36,79.29,-21.83,2.419,217
28285,-104.05,73.39,-108.15,-1.36,79.3,-21.81,2.414,194
28300,-104.05,73.39,-108.15,-1.38,79.3,-21.82,2.414,214
28314,-104.02,73.39,-108.09,-1.41,79.31,-21.85,2.414,214
28329,-104.03,73.39,-108.09,-1.44,79.32,-21.88,2.419,199
28344,-103.99,73.38,-108.05,-1.44,79.32,-21.88,2.414,202
28358,-104.01,73.37,-108.05,-1.49,79.32,-21.94,2.414,179
28373,-104.03,73.35,-108.06,-1.54,79.33,-21.99,2.414,222
28388,-104.03,73.35,-108.06,-1.58,79.33,-22.05,2.414,222
28402,-104.07,73.33,-108.08,-1.62,79.34,-22.1,2.419,183
28417,-104.07,73.32,-108.09,-1.65,79.35,-22.13,2.414,182
28432,-104.09,73.31,-108.11,-1.65,79.35,-22.13,2.419,227
28446,-104.16,73.3,-108.17,-1.65,79.36,-22.15,2.414,248
28461,-104.19,73.3,-108.22,-1.63,79.37,-22.14,2.414,286
28476,-104.19,73.3,-108.22,-1.61,79.37,-22.15,2.414,256
28490,-104.2,73.31,-108.24,-1.56,79.36,-22.11,2.414,221
28505,-104.18,73.32,-108.24,-1.56,79.36,-22.13,2.419,234
28520,-104.17,73.33,-108.25,-1.56,79.36,-22.13,2.419,241
28534,-104.19,73.33,-108.28,-1.54,79.37,-22.12,2.414,235
28549,-104.21,73.34,-108.32,-1.5,79.36,-22.11,2.419,212
28563,-104.21,73.34,-108.32,-1.46,79.37,-22.08,2.419,195
28578,-104.25,73.36,-108.37,-1.46,79.37,-22.09,2.419,183
28592,-104.25,73.37,-108.38,-1.46,79.37,-22.09,2.414,251
28607,-104.24,73.36,-108.38,-1.5,79.38,-22.13,2.414,268
28621,-104.3,73.36,-108.44,-1.51,79.4,-22.16,2.414,250
28636,-104.3,73.36,-108.44,-1.51,79.41,-22.18,2.414,231
28651,-104.34,73.36,-108.49,-1.55,79.43,-22.25,2.419,229
28665,-104.36,73.35,-108.52,-1.6,79.44,-22.32,2.414,231
28680,-104.39,73.33,-108.56,-1.6,79.44,-22.32,2.419,277
28694,-104.44,73.33,-108.62,-1.59,79.45,-22.33,2.414,228
28709,-104.49,73.32,-108.68,-1.58,79.46,-22.32,2.419,240
28724,-104.49,73.32,-108.68,-1.58,79.47,-22.34,2.414,223
28738,-104.54,73.32,-108.72,-1.61,79.48,-22.39,2.414,252
28753,-104.57,73.31,-108.76,-1.63,79.49,-22.42,2.414,289
28768,-104.61,73.31,-108.8,-1.63,79.49,-22.42,2.419,312
28782,-104.66,73.31,-108.86,-1.62,79.49,-22.42,2.419,262
28797,-104.66,73.31,-108.87,-1.63,79.5,-22.44,2.414,212
28812,-104.66,73.31,-108.87,-1.62,79.51,-22.43,2.419,239
28826,-104.68,73.32,-108.88,-1.6,79.51,-22.42,2.419,265
28841,-104.71,73.32,-108.92,-1.6,79.51,-22.42,2.419,232
28855,-104.72,73.33,-108.93,-1.6,79.51,-22.43,2.419,210
28870,-104.74,73.34,-108.95,-1.6,79.52,-22.43,2.419,199
28885,-104.74,73.34,-108.95,-1.61,79.52,-22.44,2.419,192
28899,-104.76,73.35,-108.97,-1.62,79.52,-22.45,2.419,193
28914,-104.74,73.35,-108.96,-1.63,79.53,-22.47,2.419,235
28929,-104.72,73.34,-108.93,-1.63,79.53,-22.47,2.419,215
28943,-104.74,73.35,-108.95,-1.61,79.53,-22.45,2.419,224
28958,-104.75,73.35,-108.95,-1.62,79.54,-22.47,2.419,223
28972,-104.75,73.35,-108.95,-1.62,79.55,-22.47,2.419,229
28987,-104.76,73.35,-108.94,-1.6,79.55,-22.46,2.419,267
29002,-104.77,73.34,-108.93,-1.6,79.55,-22.46,2.419,247
29016,-104.77,73.35,-108.92,-1.56,79.55,-22.41,2.419,236
29031,-104.77,73.35,-108.91,-1.55,79.55,-22.39,2.414,291
29046,-104.77,73.36,-108.9,-1.54,79.55,-22.38,2.419,263
29060,-104.77,73.36,-108.9,-1.55,79.56,-22.38,2.419,262
29075,-104.76,73.37,-108.89,-1.57,79.57,-22.39,2.419,267
29089,-104.76,73.37,-108.87,-1.57,79.57,-22.39,2.419,276
29104,-104.78,73.38,-108.88,-1.6,79.58,-22.42,2.419,269
29118,-104.77,73.39,-108.88,-1.62,79.58,-22.45,2.414,256
29133,-104.74,73.4,-108.86,-1.59,79.59,-22.42,2.419,243
29148,-104.74,73.4,-108.86,-1.58,79.58,-22.42,2.414,225
29162,-104.7,73.42,-108.85,-1.62,79.58,-22.46,2.419,266
29177,-104.68,73.43,-108.82,-1.62,79.58,-22.46,2.419,266
29191,-104.71,73.43,-108.84,-1.64,79.58,-22.5,2.419,243
29206,-104.73,73.43,-108.85,-1.65,79.58,-22.51,2.414,226
29221,-104.73,73.43,-108.85,-1.63,79.57,-22.49,2.419,221
29235,-104.7,73.43,-108.81,-1.61,79.56,-22.46,2.419,238
29250,-104.67,73.44,-108.78,-1.61,79.56,-22.46,2.419,255
29264,-104.68,73.44,-108.79,-1.61,79.56,-22.46,2.419,294
29279,-104.66,73.45,-108.79,-1.63,79.55,-22.49,2.419,270
29294,-104.64,73.45,-108.78,-1.63,79.55,-22.49,2.419,257
29309,-104.64,73.45,-108.78,-1.64,79.55,-22.52,2.419,228
29323,-104.66,73.45,-108.79,-1.64,79.55,-22.53,2.419,231
29338,-104.65,73.44,-108.78,-1.64,79.55,-22.53,2.419,245
29352,-104.67,73.44,-108.81,-1.63,79.55,-22.53,2.419,279
29367,-104.64,73.45,-108.8,-1.6,79.54,-22.51,2.419,244
29382,-104.65,73.46,-108.81,-1.58,79.54,-22.52,2.419,210
29397,-104.65,73.46,-108.81,-1.57,79.55,-22.52,2.419,214
29411,-104.66,73.46,-108.84,-1.57,79.55,-22.52,2.424,226
29425,-104.64,73.46,-108.82,-1.56,79.55,-22.52,2.419,238
29440,-104.64,73.46,-108.81,-1.57,79.55,-22.53,2.419,221
29455,-104.65,73.46,-108.79,-1.59,79.55,-22.53,2.419,237
29469,-104.65,73.46,-108.79,-1.63,79.56,-22.55,2.419,238
29484,-104.66,73.46,-108.79,-1.67,79.56,-22.59,2.419,199
29499,-104.69,73.46,-108.79,-1.67,79.56,-22.59,2.424,235
29513,-104.71,73.45,-108.78,-1.7,79.57,-22.61,2.419,226
29528,-104.72,73.44,-108.75,-1.74,79.58,-22.62,2.424,232
29542,-104.75,73.43,-108.75,-1.77,79.59,-22.62,2.419,219
29557,-104.75,73.43,-108.75,-1.79,79.6,-22.63,2.419,204
29571,-104.77,73.43,-108.74,-1.81,79.61,-22.64,2.419,195
29586,-104.81,73.42,-108.77,-1.81,79.61,-22.64,2.419,239
29601,-104.83,73.42,-108.79,-1.84,79.62,-22.67,2.414,228
29615,-104.85,73.42,-108.81,-1.86,79.62,-22.7,2.419,230
29630,-104.86,73.42,-108.82,-1.84,79.62,-22.7,2.419,208
29645,-104.86,73.42,-108.82,-1.81,79.62,-22.68,2.419,190
29659,-104.85,73.42,-108.83,-1.81,79.62,-22.68,2.419,234
29673,-104.87,73.42,-108.87,-1.83,79.63,-22.71,2.419,230
29688,-104.87,73.42,-108.89,-1.79,79.63,-22.68,2.419,228
29703,-104.87,73.43,-108.89,-1.8,79.64,-22.71,2.419,228
29718,-104.87,73.43,-108.89,-1.84,79.65,-22.75,2.419,240
29733,-104.87,73.43,-108.89,-1.85,79.66,-22.78,2.419,216
29747,-104.88,73.42,-108.91,-1.85,79.66,-22.78,2.419,213
29761,-104.9,73.4,-108.92,-1.86,79.66,-22.8,2.424,266
29776,-104.91,73.39,-108.92,-1.86,79.66,-22.82,2.414,241
29791,-104.93,73.38,-108.94,-1.86,79.67,-22.83,2.419,234
29806,-104.93,73.38,-108.94,-1.84,79.67,-22.82,2.419,272
29820,-104.94,73.38,-108.96,-1.84,79.67,-22.82,2.424,241
29834,-104.97,73.38,-109,-1.83,79.67,-22.82,2.424,210
29849,-104.97,73.38,-109.03,-1.83,79.67,-22.83,2.419,206
29864,-104.96,73.38,-109.02,-1.83,79.67,-22.85,2.419,211
29879,-104.97,73.38,-109.04,-1.85,79.67,-22.89,2.419,243
29893,-104.97,73.38,-109.04,-1.84,79.67,-22.89,2.419,220
29907,-105,73.38,-109.06,-1.84,79.67,-22.89,2.424,186
29922,-105.01,73.38,-109.08,-1.84,79.68,-22.91,2.424,208
29937,-105,73.37,-109.08,-1.85,79.68,-22.93,2.419,219
29951,-105.01,73.37,-109.1,-1.88,79.68,-22.97,2.419,217
29966,-105.05,73.37,-109.15,-1.88,79.67,-22.98,2.419,195
30018,-105.06,73.37,-109.18,-1.87,79.68,-22.98,2.424,198
30033,-105.05,73.37,-109.18,-1.86,79.68,-22.99,2.424,195
30048,-105.06,73.36,-109.2,-1.86,79.68,-23.02,2.419,181
30063,-105.08,73.36,-109.24,-1.88,79.69,-23.06,2.419,174
30077,-105.1,73.36,-109.28,-1.88,79.7,-23.08,2.419,188
30092,-105.08,73.36,-109.28,-1.92,79.7,-23.14,2.424,203
30107,-105.09,73.35,-109.29,-1.93,79.71,-23.17,2.424,191
30121,-105.11,73.35,-109.32,-1.94,79.72,-23.2,2.419,185
30136,-105.16,73.34,-109.36,-1.96,79.72,-23.23,2.419,188
30151,-105.17,73.34,-109.38,-1.96,79.73,-23.23,2.419,222
30165,-105.18,73.33,-109.37,-1.97,79.74,-23.25,2.419,247
30180,-105.18,73.33,-109.37,-2,79.74,-23.28,2.419,224
30195,-105.18,73.33,-109.37,-2,79.75,-23.29,2.419,238
30209,-105.18,73.33,-109.37,-2,79.75,-23.29,2.424,230
30223,-105.18,73.32,-109.36,-2.01,79.75,-23.31,2.419,222
30238,-105.19,73.32,-109.37,-2.02,79.76,-23.34,2.419,277
30252,-105.21,73.31,-109.38,-2.02,79.76,-23.34,2.419,288
30267,-105.21,73.31,-109.39,-2.03,79.76,-23.35,2.424,250
30282,-105.21,73.31,-109.39,-2.03,79.76,-23.35,2.424,229
30295,-105.22,73.32,-109.4,-2.03,79.76,-23.36,2.424,282
30310,-105.24,73.32,-109.42,-2.02,79.77,-23.36,2.419,282
30325,-105.23,73.32,-109.42,-2.03,79.77,-23.38,2.424,288
30340,-105.21,73.31,-109.42,-2.05,79.76,-23.4,2.419,241
30354,-105.21,73.31,-109.42,-2.03,79.76,-23.4,2.419,265
30368,-105.22,73.31,-109.44,-2.03,79.76,-23.4,2.419,241
30382,-105.22,73.31,-109.45,-2.05,79.76,-23.43,2.424,228
30397,-105.23,73.32,-109.46,-2.05,79.77,-23.44,2.419,264
30412,-105.22,73.32,-109.45,-2.07,79.76,-23.46,2.419,230
30427,-105.23,73.31,-109.46,-2.07,79.75,-23.48,2.414,252
30441,-105.23,73.31,-109.46,-2.07,79.75,-23.48,2.419,242
30455,-105.25,73.31,-109.49,-2.06,79.75,-23.47,2.419,223
30470,-105.27,73.3,-109.51,-2.04,79.75,-23.45,2.419,213
30484,-105.26,73.3,-109.52,-2.04,79.74,-23.47,2.419,245
30499,-105.26,73.3,-109.54,-2.01,79.74,-23.46,2.419,270
30514,-105.26,73.3,-109.54,-2.01,79.74,-23.46,2.419,257
30527,-105.25,73.31,-109.55,-1.99,79.75,-23.45,2.419,220
30542,-105.27,73.31,-109.57,-1.99,79.75,-23.46,2.419,193
30557,-105.29,73.31,-109.6,-1.98,79.76,-23.46,2.419,205
30571,-105.26,73.31,-109.57,-1.99,79.76,-23.48,2.419,253
30586,-105.25,73.3,-109.54,-2.01,79.76,-23.49,2.419,288
30601,-105.25,73.3,-109.54,-2.01,79.76,-23.49,2.419,255
30614,-105.27,73.29,-109.56,-2.02,79.76,-23.49,2.419,231
30629,-105.3,73.29,-109.58,-2.03,79.77,-23.48,2.424,234
30644,-105.3,73.29,-109.59,-2.04,79.78,-23.48,2.419,251
30658,-105.3,73.29,-109.58,-2.02,79.78,-23.47,2.419,270
30673,-105.3,73.29,-109.58,-2.02,79.78,-23.47,2.419,264
30686,-105.31,73.29,-109.58,-2.07,79.78,-23.51,2.419,242
30701,-105.33,73.3,-109.61,-2.06,79.77,-23.51,2.419,217
30716,-105.33,73.29,-109.62,-2.03,79.76,-23.48,2.419,210
30731,-105.32,73.29,-109.63,-2.02,79.76,-23.48,2.419,239
30745,-105.34,73.29,-109.66,-2.02,79.76,-23.49,2.424,256
30760,-105.34,73.29,-109.66,-2.02,79.76,-23.49,2.419,237
30774,-105.34,73.3,-109.69,-2.03,79.77,-23.52,2.419,262
30788,-105.33,73.29,-109.7,-2,79.76,-23.52,2.419,275
30803,-105.35,73.29,-109.74,-1.96,79.76,-23.51,2.419,281
30818,-105.35,73.29,-109.75,-1.93,79.75,-23.48,2.419,285
30832,-105.35,73.29,-109.75,-1.93,79.75,-23.48,2.419,250
30846,-105.34,73.31,-109.76,-1.89,79.75,-23.46,2.419,226
30861,-105.33,73.31,-109.75,-1.84,79.75,-23.41,2.419,239
30876,-105.34,73.3,-109.77,-1.83,79.75,-23.42,2.419,205
30890,-105.38,73.3,-109.82,-1.81,79.75,-23.4,2.419,331
30905,-105.38,73.31,-109.82,-1.76,79.75,-23.37,2.419,274
30920,-105.38,73.31,-109.82,-1.76,79.75,-23.37,2.419,242
30934,-105.37,73.33,-109.83,-1.74,79.75,-23.35,2.419,213
30949,-105.38,73.33,-109.86,-1.72,79.75,-23.36,2.419,211
30964,-105.37,73.34,-109.88,-1.7,79.75,-23.35,2.419,229
30978,-105.36,73.35,-109.88,-1.63,79.74,-23.3,2.419,186
30993,-105.36,73.36,-109.88,-1.63,79.74,-23.3,2.419,184
31007,-105.36,73.36,-109.88,-1.62,79.75,-23.3,2.419,172
31022,-105.4,73.37,-109.91,-1.6,79.74,-23.3,2.419,185
31036,-105.42,73.37,-109.95,-1.56,79.74,-23.28,2.419,162
31051,-105.41,73.37,-109.94,-1.52,79.73,-23.25,2.419,158
31066,-105.38,73.39,-109.9,-1.49,79.73,-23.22,2.419,173
31081,-105.38,73.39,-109.9,-1.49,79.73,-23.22,2.419,177
31095,-105.4,73.4,-109.91,-1.4,79.74,-23.13,2.419,164
31109,-105.43,73.41,-109.93,-1.31,79.74,-23.05,2.419,152
31124,-105.42,73.44,-109.93,-1.22,79.75,-22.98,2.419,167
31139,-105.46,73.45,-109.99,-1.11,79.77,-22.89,2.419,156
31154,-105.54,73.45,-110.09,-1.06,79.79,-22.85,2.419,168
31169,-105.54,73.45,-110.09,-1.06,79.79,-22.85,2.419,165
31182,-105.62,73.46,-110.2,-0.93,79.81,-22.74,2.424,148
31197,-105.68,73.46,-110.26,-0.81,79.83,-22.64,2.424,166
31212,-105.75,73.46,-110.36,-0.69,79.85,-22.56,2.419,181
31227,-105.77,73.46,-110.43,-0.54,79.88,-22.49,2.424,195
31242,-105.76,73.46,-110.48,-0.54,79.88,-22.49,2.419,180
31256,-105.76,73.46,-110.48,-0.35,79.89,-22.44,2.424,283
31270,-105.77,73.46,-110.61,-0.14,79.9,-22.4,2.419,245
31285,-105.72,73.47,-110.73,0.13,79.89,-22.34,2.419,259
31300,-105.67,73.49,-110.86,0.41,79.89,-22.31,2.419,220
31315,-105.6,73.51,-111.01,0.71,79.86,-22.28,2.419,205
31329,-105.6,73.51,-111.01,0.71,79.86,-22.28,2.419,180
31343,-105.49,73.53,-111.12,1.05,79.84,-22.19,2.419,165
31358,-105.47,73.52,-111.26,1.43,79.83,-22,2.419,160
31373,-105.52,73.51,-111.39,1.75,79.81,-21.78,2.419,189
31387,-105.64,73.53,-111.47,2.07,79.77,-21.5,2.414,165
31402,-105.78,73.56,-111.55,2.07,79.77,-21.5,2.419,132
31416,-105.78,73.56,-111.55,2.39,79.76,-21.18,2.414,162
31431,-105.87,73.59,-111.53,2.72,79.75,-20.84,2.419,141
31445,-105.93,73.61,-111.43,2.96,79.71,-20.58,2.419,151
31460,-106.01,73.69,-111.36,3.14,79.62,-20.29,2.419,142
31475,-105.92,73.89,-111.14,3.36,79.54,-19.97,2.419,119
31490,-105.73,74.11,-110.82,3.36,79.54,-19.97,2.424,97
31504,-105.73,74.11,-110.82,3.46,79.45,-19.79,2.424,125
31518,-105.48,74.32,-110.42,3.54,79.36,-19.65,2.424,102
31533,-105.3,74.51,-110.09,3.61,79.26,-19.56,2.429,95
31548,-105.22,74.66,-109.91,3.64,79.19,-19.62,2.429,98
31563,-105.28,74.8,-109.93,3.6,79.13,-19.85,2.424,114
31578,-105.28,74.8,-109.93,3.6,79.13,-19.85,2.429,93
31591,-105.31,75.03,-109.95,3.6,79.06,-20.02,2.424,77
31613,-105.3,75.37,-109.95,3.58,79,-20.18,2.424,60
31628,-105.36,75.84,-109.98,3.39,78.97,-20.5,2.424,54
31644,-105.53,76.38,-110.02,2.97,78.96,-21.02,2.424,49
31660,-105.92,76.94,-110.18,2.25,78.97,-21.82,2.424,46
31676,-106.48,77.53,-110.59,1.48,79,-22.66,2.429,45
31691,-106.79,78.15,-110.91,1.04,79.04,-23.1,2.439,43
31707,-106.97,78.72,-111.07,0.91,79.05,-23.19,2.454,42
31723,-107.09,79.21,-111.21,0.84,79.1,-23.22,2.468,41
31739,-106.87,79.56,-110.96,0.84,79.1,-23.22,2.483,43
31754,-106.87,79.56,-110.96,0.76,79.15,-23.18,2.488,45
31768,-106.63,79.75,-110.65,0.92,79.18,-22.79,2.493,42
31782,-106.71,79.84,-110.51,1.52,79.17,-21.95,2.493,43
31797,-107.07,79.86,-110.51,3.03,79.01,-20.22,2.488,41
31812,-107.54,79.92,-110.54,5.1,78.78,-17.79,2.483,43
31826,-107.96,79.99,-110.45,5.1,78.78,-17.79,2.473,41
31840,-107.96,79.99,-110.45,7.66,78.54,-14.7,2.454,41
31854,-108.44,80.12,-110.36,10.32,78.29,-11.56,2.444,39
31869,-108.8,80.29,-110.17,12.84,78.04,-8.59,2.429,38
31883,-109.11,80.45,-110.01,15.29,77.77,-5.8,2.405,38
31898,-109.73,80.61,-110.23,15.29,77.77,-5.8,2.39,37
31912,-109.73,80.61,-110.23,17.58,77.51,-3.25,2.385,36
31926,-110.4,80.79,-110.61,19.45,77.31,-1.16,2.38,36
31941,-110.82,80.96,-110.84,21.16,77.16,0.75,2.37,35
31955,-111.18,81.16,-111.14,22.69,77.01,2.48,2.37,35
31970,-112.17,81.44,-112.21,22.69,77.01,2.48,2.375,34
31984,-112.17,81.44,-112.21,23.75,76.97,3.71,2.385,35
31998,-112.99,81.66,-113.21,24.1,77.12,4.11,2.395,35
32012,-113.12,81.78,-113.63,24.02,77.42,3.81,2.405,35
32027,-113.27,81.68,-114.15,23.96,77.65,3.38,2.414,40
32041,-113.56,81.47,-114.88,23.96,77.65,3.38,2.414,71
32055,-113.56,81.47,-114.88,24.11,77.75,3.05,2.41,62
32069,-113.52,81.34,-115.23,24.43,77.81,2.99,2.405,55
32084,-113.4,81.26,-115.4,25.01,77.78,3.58,2.4,49
32098,-113.79,81.17,-115.93,26.02,77.81,4.9,2.405,44
32113,-113.97,81.05,-116.17,26.02,77.81,4.9,2.41,42
32127,-113.97,81.05,-116.17,26.9,77.87,6.05,2.414,43
32141,-113.44,80.91,-115.67,27.8,77.96,7.04,2.419,44
32155,-113.04,80.7,-115.24,28.83,78.04,8.02,2.419,48
32170,-113.33,80.43,-115.48,29.85,78.07,8.99,2.424,45
32184,-113.62,80.14,-115.69,29.85,78.07,8.99,2.424,43
32198,-113.71,79.93,-115.59,30.94,78.03,10.17,2.424,41
32213,-113.71,79.93,-115.59,32.24,78.04,11.79,2.424,40
32227,-114.01,79.73,-115.52,33.48,78.06,13.35,2.424,39
32241,-114.34,79.55,-115.46,34.55,78.11,14.6,2.424,38
32256,-114.76,79.42,-115.51,35.49,78.15,15.67,2.419,41
32271,-115.23,79.36,-115.67,35.49,78.15,15.67,2.424,41
32284,-115.23,79.36,-115.67,36.41,78.17,16.74,2.424,42
32298,-115.82,79.35,-116.02,37.22,78.21,17.67,2.424,41
32313,-116.5,79.34,-116.51,37.93,78.24,18.45,2.424,41
32328,-117.21,79.32,-117.09,38.56,78.27,19.06,2.424,39
32342,-117.93,79.32,-117.79,38.56,78.27,19.06,2.429,39
32356,-117.93,79.32,-117.79,39.03,78.28,19.43,2.429,48
32370,-118.45,79.34,-118.4,39.41,78.29,19.63,2.429,46
32385,-118.81,79.36,-118.92,39.63,78.27,19.59,2.429,44
32399,-118.98,79.38,-119.34,39.7,78.22,19.41,2.434,42
32414,-119.1,79.39,-119.77,39.7,78.22,19.41,2.429,40
32428,-119.1,79.39,-119.77,39.81,78.14,19.31,2.424,40
32442,-119.19,79.39,-120.16,39.94,78.06,19.31,2.429,39
32456,-119.22,79.42,-120.39,40.16,78,19.41,2.424,39
32471,-119.21,79.48,-120.49,40.26,77.97,19.39,2.429,38
32485,-119.21,79.55,-120.59,40.26,77.97,19.39,2.434,39
32499,-119.24,79.67,-120.71,40.33,77.94,19.35,2.439,41
32514,-119.24,79.67,-120.71,40.45,77.88,19.41,2.439,41
32528,-119.48,79.81,-120.98,40.52,77.83,19.56,2.449,42
32542,-119.96,79.92,-121.38,40.54,77.78,19.82,2.449,50
32557,-120.47,80.07,-121.7,40.54,77.78,19.82,2.454,49
32571,-120.82,80.26,-121.85,40.43,77.7,20.03,2.463,65
32585,-120.82,80.26,-121.85,40.18,77.65,20,2.473,73
32599,-120.8,80.43,-121.67,39.7,77.62,19.57,2.478,78
32614,-120.57,80.47,-121.4,39.26,77.53,19.02,2.483,77
32628,-120.59,80.43,-121.57,39.26,77.53,19.02,2.483,80
32642,-120.6,80.41,-121.76,38.9,77.35,18.54,2.488,77
32657,-120.6,80.41,-121.76,38.89,77.22,18.45,2.488,84
32671,-120.52,80.38,-121.87,38.96,77.07,18.47,2.488,90
32685,-120.09,80.36,-121.61,39.06,76.91,18.54,2.488,91
32700,-119.59,80.35,-121.24,39.06,76.91,18.54,2.493,85
32714,-119.08,80.36,-120.84,39.21,76.74,18.69,2.493,90
32774,-118.56,80.39,-120.44,39.4,76.55,18.87,2.483,70
32788,-118.04,80.44,-120.01,39.6,76.37,19.03,2.483,74
32803,-117.74,80.47,-119.78,39.79,76.19,19.17,2.488,72
32817,-117.47,80.53,-119.54,39.97,76,19.3,2.483,66
32832,-117.12,80.59,-119.18,40.08,75.83,19.39,2.483,66
32846,-116.9,80.67,-118.94,40.13,75.65,19.47,2.483,73
32861,-116.66,80.74,-118.66,40.13,75.49,19.5,2.483,71
32875,-116.4,80.81,-118.45,40.12,75.33,19.47,2.488,68
32889,-116.04,80.9,-118.17,40.07,75.17,19.38,2.483,63
32904,-115.81,80.97,-118.03,40.01,75.02,19.28,2.478,59
32918,-115.5,81.05,-117.78,39.99,74.89,19.21,2.478,56
32933,-115.16,81.13,-117.44,39.92,74.77,19.13,2.483,55
32947,-114.92,81.19,-117.14,39.84,74.67,19.07,2.483,58
32962,-114.76,81.24,-116.91,39.75,74.59,19.01,2.488,65
32976,-114.76,81.24,-116.91,39.66,74.5,18.97,2.483,66
32990,-114.54,81.28,-116.63,39.54,74.42,18.93,2.483,69
33004,-114.13,81.32,-116.12,39.43,74.35,18.91,2.483,65
33019,-113.8,81.36,-115.71,39.43,74.35,18.91,2.483,70
33033,-113.42,81.4,-115.26,39.35,74.29,18.9,2.483,66
33047,-113.42,81.4,-115.26,39.27,74.24,18.88,2.478,68
33061,-113.01,81.46,-114.82,39.21,74.19,18.85,2.483,67
33075,-112.67,81.51,-114.47,39.16,74.15,18.8,2.483,64
33090,-112.29,81.56,-114.12,39.16,74.15,18.8,2.483,59
33104,-111.92,81.61,-113.76,39.12,74.11,18.76,2.483,57
33118,-111.92,81.61,-113.76,39.07,74.07,18.71,2.488,54
33132,-111.65,81.65,-113.5,39.02,74.04,18.65,2.488,51
33146,-111.37,81.69,-113.24,39.04,74,18.62,2.483,50
33161,-111.22,81.73,-113.15,39.04,74,18.62,2.488,53
33175,-111.09,81.78,-113.05,39.08,73.97,18.63,2.483,51
33189,-111.09,81.78,-113.05,39.1,73.94,18.62,2.483,52
33203,-111.03,81.81,-113.02,39.14,73.92,18.61,2.488,50
33217,-110.97,81.83,-112.98,39.21,73.89,18.65,2.488,59
33232,-110.92,81.85,-112.97,39.21,73.89,18.65,2.488,58
33246,-110.94,81.87,-113.03,39.29,73.86,18.68,2.488,71
33260,-110.94,81.87,-113.03,39.41,73.82,18.75,2.488,68
33274,-110.86,81.91,-112.99,39.53,73.79,18.83,2.488,64
33288,-110.83,81.96,-113.02,39.66,73.76,18.91,2.483,61
33303,-110.87,82,-113.11,39.66,73.76,18.91,2.488,55
33317,-110.97,82.04,-113.26,39.8,73.73,19,2.483,57
33331,-110.97,82.04,-113.26,39.94,73.71,19.1,2.483,57
33345,-111.06,82.08,-113.4,40.09,73.69,19.19,2.483,52
33359,-111.14,82.12,-113.54,40.24,73.68,19.29,2.483,56
33374,-111.34,82.14,-113.78,40.24,73.68,19.29,2.488,52
33388,-111.57,82.16,-114.08,40.38,73.65,19.36,2.488,50
33402,-111.57,82.16,-114.08,40.54,73.63,19.42,2.483,48
33416,-111.74,82.17,-114.32,40.69,73.61,19.51,2.483,49
33430,-111.88,82.2,-114.52,40.83,73.58,19.61,2.483,49
33445,-112.11,82.22,-114.78,40.83,73.58,19.61,2.483,48
33459,-112.42,82.23,-115.09,40.95,73.56,19.71,2.478,50
33473,-112.42,82.23,-115.09,41.09,73.55,19.84,2.483,56
33487,-112.67,82.25,-115.32,41.21,73.54,19.96,2.483,52
33501,-112.79,82.26,-115.41,41.3,73.53,20.04,2.483,52
33516,-113.01,82.27,-115.59,41.3,73.53,20.04,2.483,51
33529,-113.21,82.27,-115.72,41.38,73.54,20.15,2.478,52
33544,-113.21,82.27,-115.72,41.47,73.53,20.28,2.478,53
33558,-113.38,82.27,-115.82,41.58,73.53,20.42,2.488,51
33572,-113.48,82.27,-115.87,41.63,73.53,20.51,2.483,51
33587,-113.59,82.27,-115.93,41.63,73.53,20.51,2.488,48
33601,-113.73,82.25,-116,41.66,73.54,20.59,2.483,48
33616,-113.84,82.25,-116.03,41.7,73.55,20.67,2.483,47
33630,-113.84,82.25,-116.03,41.74,73.55,20.79,2.483,53
33644,-113.96,82.25,-116.08,41.76,73.56,20.87,2.483,53
33659,-114.09,82.24,-116.13,41.76,73.56,20.87,2.488,52
33673,-114.17,82.22,-116.13,41.76,73.59,20.93,2.483,49
33687,-114.28,82.2,-116.19,41.78,73.61,20.98,2.483,52
33702,-114.28,82.2,-116.19,41.79,73.63,21.03,2.483,53
33716,-114.35,82.18,-116.21,41.8,73.65,21.08,2.483,51
33730,-114.37,82.17,-116.19,41.8,73.65,21.08,2.488,51
33744,-114.42,82.17,-116.22,41.84,73.66,21.15,2.483,50
33759,-114.34,82.16,-116.1,41.85,73.67,21.2,2.488,51
33774,-114.34,82.16,-116.1,41.89,73.69,21.29,2.483,50
33787,-114.34,82.15,-116.08,41.91,73.71,21.34,2.488,50
33802,-114.2,82.15,-115.94,41.91,73.71,21.34,2.488,51
33816,-114.12,82.14,-115.86,41.94,73.73,21.39,2.483,49
33831,-114.14,82.11,-115.88,41.97,73.75,21.44,2.483,51
33845,-114.14,82.11,-115.88,41.98,73.77,21.46,2.488,56
33859,-114.29,82.08,-116.01,41.99,73.8,21.47,2.483,52
33874,-114.38,82.06,-116.09,41.99,73.8,21.47,2.483,59
33888,-114.42,82.05,-116.13,42.04,73.81,21.5,2.488,55
33902,-114.41,82.04,-116.12,42.06,73.83,21.53,2.488,51
33917,-114.47,82.03,-116.18,42.09,73.85,21.55,2.483,59
33931,-114.47,82.03,-116.18,42.12,73.87,21.57,2.493,67
33945,-114.48,82.03,-116.21,42.19,73.88,21.63,2.488,62
33960,-114.48,82.01,-116.24,42.19,73.88,21.63,2.483,58
33974,-114.48,82.01,-116.26,42.23,73.89,21.66,2.488,66
33988,-114.53,82,-116.33,42.27,73.89,21.69,2.488,67
34003,-114.53,82,-116.33,42.31,73.89,21.7,2.483,58
34017,-114.54,82,-116.37,42.35,73.9,21.73,2.483,57
34031,-114.56,82,-116.41,42.35,73.9,21.73,2.483,59
34045,-114.56,82.01,-116.45,42.4,73.89,21.76,2.488,56
34060,-114.46,82.03,-116.38,42.46,73.89,21.8,2.488,59
34074,-114.46,82.03,-116.38,42.48,73.88,21.8,2.488,57
34088,-114.42,82.04,-116.37,42.53,73.87,21.81,2.488,55
34103,-114.49,82.05,-116.47,42.53,73.87,21.81,2.488,53
34117,-114.51,82.06,-116.51,42.56,73.87,21.82,2.483,49
34131,-114.44,82.09,-116.45,42.6,73.86,21.85,2.483,46
34146,-114.44,82.09,-116.45,42.65,73.84,21.91,2.488,46
34160,-114.45,82.12,-116.47,42.67,73.82,21.94,2.488,46
34175,-114.4,82.16,-116.43,42.67,73.82,21.94,2.488,45
34188,-114.4,82.17,-116.41,42.67,73.82,21.94,2.488,46
34203,-114.44,82.2,-116.45,42.7,73.82,21.97,2.488,47
34218,-114.41,82.24,-116.43,42.74,73.81,22.02,2.488,44
34232,-114.41,82.24,-116.43,42.78,73.8,22.07,2.488,44
34246,-114.35,82.27,-116.37,42.78,73.8,22.07,2.493,48
34260,-114.36,82.29,-116.41,42.83,73.79,22.1,2.488,53
34275,-114.35,82.33,-116.44,42.84,73.77,22.08,2.488,49
34289,-114.33,82.36,-116.48,42.86,73.76,22.07,2.483,48
34304,-114.33,82.36,-116.48,42.88,73.75,22.03,2.488,47
34318,-114.38,82.38,-116.58,42.88,73.75,22.03,2.488,47
34332,-114.29,82.41,-116.56,42.89,73.73,22.01,2.488,52
34346,-114.33,82.43,-116.67,42.93,73.72,22,2.483,53
34361,-114.33,82.45,-116.73,42.95,73.71,21.98,2.493,54
34375,-114.33,82.45,-116.73,42.98,73.7,21.99,2.488,54
34389,-114.32,82.47,-116.73,42.98,73.7,21.99,2.488,57
34403,-114.25,82.48,-116.69,43,73.7,21.99,2.493,62
34418,-114.17,82.49,-116.64,43.03,73.69,22.01,2.493,62
34432,-114.14,82.49,-116.6,43.05,73.69,22.02,2.493,63
34447,-114.14,82.49,-116.6,43.08,73.69,22.04,2.488,61
34461,-114.21,82.48,-116.67,43.07,73.69,22.02,2.493,58
34476,-114.22,82.48,-116.67,43.07,73.69,22.02,2.493,55
34490,-114.22,82.48,-116.69,43.11,73.69,22.04,2.493,57
34504,-114.35,82.48,-116.84,43.18,73.68,22.09,2.488,52
34519,-114.43,82.48,-116.94,43.24,73.67,22.13,2.488,49
34533,-114.43,82.48,-116.94,43.32,73.67,22.19,2.488,53
34547,-114.53,82.48,-117.08,43.32,73.67,22.19,2.493,54
34561,-114.59,82.49,-117.19,43.38,73.66,22.24,2.493,52
34576,-114.56,82.5,-117.17,43.44,73.66,22.29,2.493,49
34590,-114.5,82.5,-117.11,43.49,73.67,22.35,2.493,52
34605,-114.5,82.5,-117.11,43.53,73.68,22.4,2.488,58
34619,-114.54,82.5,-117.12,43.53,73.68,22.4,2.493,55
34633,-114.42,82.5,-116.99,43.56,73.69,22.45,2.493,58
34647,-114.36,82.48,-116.92,43.56,73.69,22.47,2.488,63
34662,-114.33,82.48,-116.89,43.55,73.68,22.47,2.488,64
34677,-114.33,82.48,-116.89,43.56,73.68,22.49,2.488,62
34690,-114.28,82.48,-116.83,43.56,73.68,22.49,2.493,67
34704,-114.14,82.48,-116.7,43.55,73.69,22.46,2.488,62
34719,-114.16,82.47,-116.74,43.52,73.7,22.4,2.488,59
34734,-114.1,82.46,-116.73,43.5,73.7,22.34,2.493,72
34748,-114.1,82.46,-116.73,43.45,73.71,22.26,2.493,67
34762,-114.01,82.46,-116.69,43.45,73.71,22.26,2.488,63
34776,-113.99,82.45,-116.72,43.44,73.71,22.22,2.493,64
34791,-113.92,82.45,-116.67,43.43,73.72,22.19,2.493,57
34805,-113.79,82.44,-116.56,43.41,73.72,22.16,2.493,59
34820,-113.77,82.43,-116.52,43.38,73.73,22.14,2.493,53
34834,-113.77,82.43,-116.52,43.38,73.73,22.14,2.493,54
34848,-113.7,82.41,-116.45,43.37,73.74,22.14,2.493,51
34862,-113.69,82.4,-116.43,43.38,73.75,22.15,2.493,49
34877,-113.6,82.39,-116.35,43.37,73.75,22.13,2.493,46
34891,-113.57,82.39,-116.32,43.37,73.75,22.13,2.493,51
34906,-113.57,82.39,-116.32,43.37,73.75,22.13,2.488,50
34920,-113.56,82.4,-116.31,43.37,73.75,22.13,2.493,48
34934,-113.59,82.4,-116.35,43.36,73.75,22.11,2.493,49
34948,-113.57,82.4,-116.33,43.37,73.76,22.11,2.493,51
34963,-113.55,82.4,-116.32,43.39,73.76,22.14,2.493,49
34977,-113.55,82.4,-116.32,43.38,73.76,22.14,2.493,51
34991,-113.47,82.41,-116.24,43.38,73.76,22.14,2.488,47
35005,-113.28,82.42,-116.04,43.37,73.77,22.12,2.488,54
35020,-113.1,82.42,-115.85,43.31,73.77,22.09,2.493,51
35034,-113.11,82.41,-115.87,43.2,73.76,22.02,2.488,49
35049,-113.11,82.41,-115.87,43.1,73.76,21.93,2.483,54
35063,-113.14,82.39,-115.93,43.1,73.76,21.93,2.493,54
35077,-113.15,82.39,-116.04,43.09,73.75,21.86,2.488,52
35091,-113.13,82.43,-116.16,43.07,73.73,21.78,2.483,52
35106,-113.14,82.45,-116.26,43.06,73.72,21.7,2.488,54
35121,-113.14,82.45,-116.26,43.02,73.72,21.61,2.488,51
35135,-113.15,82.45,-116.32,43.02,73.72,21.61,2.488,48
35148,-113.11,82.45,-116.27,43.01,73.73,21.59,2.488,53
35163,-113.13,82.44,-116.27,43.02,73.74,21.64,2.488,48
35178,-113.14,82.43,-116.25,43.1,73.74,21.74,2.488,51
35192,-113.15,82.45,-116.22,43.13,73.74,21.8,2.488,53
35207,-113.15,82.45,-116.22,43.13,73.74,21.8,2.493,50
35220,-113.17,82.45,-116.18,43.17,73.74,21.85,2.493,48
35235,-113.24,82.45,-116.22,43.18,73.74,21.87,2.488,49
35249,-113.16,82.46,-116.14,43.22,73.74,21.89,2.488,48
35264,-113.15,82.46,-116.13,43.26,73.75,21.92,2.493,45
35278,-113.15,82.46,-116.13,43.26,73.75,21.92,2.488,50
35292,-113.26,82.47,-116.26,43.3,73.74,21.93,2.493,50
35306,-113.29,82.48,-116.32,43.35,73.72,21.94,2.488,53
35321,-113.25,82.49,-116.3,43.39,73.71,21.94,2.488,53
35335,-113.25,82.49,-116.32,43.41,73.7,21.94,2.493,50
35350,-113.25,82.49,-116.32,43.41,73.7,21.94,2.488,48
35363,-113.36,82.49,-116.44,43.45,73.69,21.96,2.488,51
35378,-113.42,82.5,-116.49,43.49,73.69,22.01,2.488,57
35392,-113.44,82.5,-116.48,43.56,73.69,22.08,2.493,55
35457,-113.48,82.5,-116.5,43.6,73.69,22.14,2.488,51
35471,-113.57,82.49,-116.56,43.61,73.68,22.18,2.493,49
35486,-113.5,82.49,-116.46,43.63,73.68,22.2,2.493,53
35500,-113.52,82.49,-116.47,43.65,73.68,22.21,2.493,49
35514,-113.46,82.5,-116.42,43.65,73.67,22.21,2.493,46
35529,-113.5,82.5,-116.45,43.65,73.66,22.21,2.488,45
35543,-113.57,82.5,-116.51,43.69,73.65,22.24,2.493,44
35558,-113.59,82.52,-116.52,43.69,73.65,22.24,2.493,53
35572,-113.58,82.53,-116.52,43.7,73.65,22.26,2.488,52
35587,-113.61,82.55,-116.53,43.69,73.64,22.26,2.493,59
35601,-113.64,82.56,-116.54,43.7,73.63,22.28,2.493,63
35616,-113.67,82.56,-116.56,43.71,73.62,22.29,2.493,59
35630,-113.6,82.58,-116.5,43.73,73.61,22.3,2.493,56
35644,-113.65,82.6,-116.54,43.76,73.59,22.33,2.493,52
35659,-113.77,82.63,-116.66,43.81,73.57,22.37,2.493,54
35673,-113.78,82.66,-116.66,43.88,73.56,22.45,2.493,51
35688,-113.83,82.69,-116.7,43.95,73.53,22.54,2.493,51
35702,-113.83,82.69,-116.7,43.95,73.53,22.54,2.493,50
35716,-113.88,82.71,-116.74,44.03,73.51,22.64,2.493,48
35730,-113.86,82.74,-116.71,44.09,73.48,22.71,2.493,49
35744,-113.91,82.77,-116.74,44.13,73.45,22.76,2.493,45
35759,-113.98,82.79,-116.78,44.19,73.43,22.83,2.488,48
35773,-113.98,82.79,-116.78,44.19,73.43,22.83,2.493,46
35787,-114.14,82.81,-116.92,44.28,73.4,22.92,2.488,50
35801,-114.2,82.84,-116.95,44.34,73.37,23.01,2.488,47
35815,-114.22,82.87,-116.93,44.43,73.35,23.13,2.493,44
35830,-114.18,82.89,-116.87,44.48,73.33,23.21,2.488,48
35844,-114.18,82.89,-116.87,44.48,73.33,23.21,2.493,51
35858,-114.31,82.91,-116.96,44.53,73.31,23.29,2.488,48
35872,-114.48,82.94,-117.08,44.58,73.29,23.37,2.488,50
35887,-114.5,82.96,-117.06,44.63,73.28,23.44,2.493,54
35901,-114.48,82.99,-117.01,44.65,73.28,23.48,2.488,50
35916,-114.48,82.99,-117.01,44.65,73.28,23.48,2.488,57
35929,-114.42,83.01,-116.91,44.68,73.28,23.52,2.493,54
35944,-114.47,83.02,-116.94,44.69,73.28,23.56,2.488,50
35959,-114.52,83.02,-116.96,44.7,73.28,23.58,2.493,49
35973,-114.48,83.04,-116.89,44.7,73.28,23.6,2.488,49
35988,-114.48,83.04,-116.89,44.7,73.28,23.6,2.493,48
36002,-114.33,83.05,-116.73,44.68,73.28,23.6,2.488,50
36016,-114.27,83.07,-116.65,44.68,73.27,23.61,2.493,46
36031,-114.21,83.08,-116.58,44.64,73.28,23.57,2.488,44
36046,-114.12,83.08,-116.48,44.62,73.29,23.54,2.488,45
36060,-114.09,83.08,-116.45,44.62,73.29,23.54,2.493,45
36074,-114.09,83.08,-116.45,44.6,73.3,23.51,2.488,45
36089,-114.03,83.09,-116.42,44.55,73.3,23.46,2.493,46
36103,-114.02,83.08,-116.42,44.5,73.31,23.4,2.488,46
36118,-114.02,83.06,-116.43,44.46,73.32,23.36,2.488,46
36133,-113.95,83.05,-116.37,44.42,73.33,23.32,2.488,43
36147,-113.95,83.05,-116.37,44.42,73.33,23.32,2.488,48
36161,-113.91,83.04,-116.32,44.38,73.35,23.28,2.493,49
36176,-113.95,83.03,-116.35,44.36,73.36,23.24,2.488,48
36190,-113.91,83.02,-116.32,44.34,73.37,23.21,2.493,48
36205,-113.91,83.01,-116.33,44.28,73.38,23.15,2.493,46
36220,-113.85,83,-116.28,44.28,73.38,23.15,2.493,44
36234,-113.85,83,-116.28,44.28,73.39,23.12,2.493,44
36248,-113.91,82.98,-116.37,44.27,73.4,23.1,2.493,43
36263,-113.93,82.98,-116.4,44.26,73.42,23.06,2.493,46
36278,-113.81,82.98,-116.31,44.25,73.43,23.03,2.493,48
36292,-113.9,82.97,-116.41,44.26,73.43,23.02,2.493,48
36307,-113.9,82.97,-116.41,44.26,73.43,23.02,2.488,50
36321,-113.89,82.95,-116.41,44.25,73.44,22.98,2.488,52
36336,-113.91,82.91,-116.46,44.22,73.44,22.91,2.488,50
36350,-113.83,82.88,-116.45,44.2,73.43,22.84,2.488,49
36365,-113.79,82.84,-116.49,44.2,73.42,22.79,2.488,53
36380,-113.82,82.82,-116.6,44.2,73.42,22.79,2.483,51
36394,-113.82,82.82,-116.6,44.2,73.41,22.73,2.483,54
36409,-113.86,82.8,-116.69,44.21,73.38,22.7,2.488,53
36423,-113.77,82.8,-116.62,44.22,73.36,22.7,2.488,50
36438,-113.66,82.79,-116.5,44.21,73.35,22.7,2.488,52
36453,-113.64,82.78,-116.45,44.15,73.34,22.68,2.488,49
36468,-113.64,82.76,-116.38,44.15,73.34,22.68,2.483,50
36482,-113.64,82.76,-116.38,44.14,73.34,22.71,2.488,48
36496,-113.58,82.76,-116.25,44.15,73.34,22.78,2.488,48
36511,-113.56,82.77,-116.14,44.16,73.34,22.85,2.488,49
36526,-113.48,82.77,-116,44.14,73.35,22.86,2.483,56
36541,-113.41,82.78,-115.9,44.14,73.35,22.86,2.488,51
36555,-113.41,82.78,-115.9,44.11,73.36,22.83,2.488,49
36569,-113.33,82.79,-115.85,44.08,73.36,22.78,2.488,48
36584,-113.28,82.8,-115.84,44.05,73.35,22.72,2.488,45
36599,-113.18,82.81,-115.78,44.03,73.34,22.68,2.483,46
36614,-113.03,82.83,-115.65,44.02,73.33,22.67,2.483,45
36629,-113.06,82.84,-115.68,44.02,73.33,22.67,2.483,43
36643,-113.06,82.84,-115.68,44,73.33,22.65,2.483,43
36657,-113.01,82.84,-115.63,43.98,73.33,22.62,2.483,42
